0.023	-0.236335	0.142365
0.0231667	-0.232603	0.113195
0.0233333	-0.228783	0.0892133
0.0235	-0.225453	0.0747693
0.0236667	-0.223292	0.0736329
0.0238333	-0.222613	0.0877719
0.024	-0.22322	0.115989
0.0241667	-0.224647	0.153278
0.0243333	-0.226723	0.192281
0.0245	-0.229337	0.225909
0.0246667	-0.231799	0.248903
0.0248333	-0.233437	0.258511
0.025	-0.234232	0.254686
0.0251667	-0.234398	0.239031
0.0253333	-0.233914	0.213993
0.0255	-0.232531	0.182744
0.0256667	-0.230052	0.148288
0.0258333	-0.226781	0.113249
0.026	-0.223602	0.0802707
0.0261667	-0.221147	0.0513374
0.0263333	-0.219379	0.0282906
0.0265	-0.21812	0.0140633
0.0266667	-0.217221	0.0121139
0.0268333	-0.21676	0.0254762
0.027	-0.217028	0.0545101
0.0271667	-0.217955	0.0945224
0.0273333	-0.219152	0.137509
0.0275	-0.220113	0.175641
0.0276667	-0.220447	0.203189
0.0278333	-0.220076	0.217281
0.028	-0.218989	0.217591
0.0281667	-0.217125	0.205496
0.0283333	-0.214515	0.183677
0.0285	-0.211445	0.155554
0.0286667	-0.208346	0.124398
0.0288333	-0.205447	0.0929348
0.029	-0.202724	0.0630547
0.0291667	-0.200107	0.0363756
0.0293333	-0.197841	0.0156637
0.0295	-0.196503	0.00436491
0.0296667	-0.196169	0.00551403
0.0298333	-0.196321	0.0216938
0.03	-0.196754	0.0532797
0.0301667	-0.197547	0.0963574
0.0303333	-0.198686	0.143792
0.0305	-0.20018	0.18793
0.0306667	-0.202157	0.222535
0.0308333	-0.204708	0.243558
0.031	-0.207428	0.249273
0.0311667	-0.20962	0.240409
0.0313333	-0.211042	0.2198
0.0315	-0.211695	0.19098
0.0316667	-0.211355	0.157364
0.0318333	-0.210027	0.122534
0.032	-0.208397	0.0901876
0.0321667	-0.206975	0.0637129
0.0323333	-0.205512	0.0459923
0.0325	-0.203963	0.0401081
0.0326667	-0.202747	0.0491027
0.0328333	-0.202185	0.0733455
0.033	-0.202492	0.10906
0.0331667	-0.203675	0.149662
0.0333333	-0.205165	0.187837
0.0335	-0.206004	0.217326
0.0336667	-0.205726	0.23404
0.0338333	-0.204686	0.236573
0.034	-0.203346	0.22607
0.0341667	-0.201921	0.205176
0.0343333	-0.200452	0.176986
0.0345	-0.198705	0.144567
0.0346667	-0.196607	0.110779
0.0348333	-0.194569	0.0781576
0.035	-0.19296	0.0486975
0.0351667	-0.191842	0.0240233
0.0353333	-0.191146	0.00593267
0.0355	-0.190722	-0.00327116
0.0356667	-0.190524	-0.000692163
0.0358333	-0.190746	0.0160697
0.036	-0.191469	0.0463294
0.0361667	-0.192628	0.084929
0.0363333	-0.194205	0.124275
0.0365	-0.195864	0.1575
0.0366667	-0.196889	0.179945
0.0368333	-0.196863	0.18958
0.037	-0.195924	0.186916
0.0371667	-0.194403	0.173986
0.0373333	-0.192452	0.153317
0.0375	-0.190212	0.127727
0.0376667	-0.18794	0.100014
0.0378333	-0.185642	0.07216
0.038	-0.183345	0.0456872
0.0381667	-0.181466	0.0231645
0.0383333	-0.180087	0.00833676
0.0385	-0.179016	0.00455024
0.0386667	-0.178498	0.0135543
0.0388333	-0.178818	0.0348489
0.039	-0.17995	0.0649195
0.0391667	-0.181695	0.0978657
0.0393333	-0.183749	0.127662
0.0395	-0.185738	0.149717
0.0396667	-0.187035	0.161437
0.0398333	-0.186895	0.1625
0.04	-0.185159	0.15432
0.0401667	-0.182452	0.138994
0.0403333	-0.179605	0.118711
0.0405	-0.177226	0.0957257
0.0406667	-0.175444	0.0721002
0.0408333	-0.173923	0.0494471
0.041	-0.172613	0.029403
0.0411667	-0.171874	0.0142601
0.0413333	-0.171763	0.00708055
0.0415	-0.172181	0.0112539
0.0416667	-0.173491	0.0294575
0.0418333	-0.175907	0.0620486
0.042	-0.178757	0.10598
0.0421667	-0.181254	0.155714
0.0423333	-0.183242	0.205051
0.0425	-0.184739	0.248056
0.0426667	-0.185446	0.279906
0.0428333	-0.18492	0.297746
0.043	-0.182966	0.30067
0.0431667	-0.179966	0.289553
0.0433333	-0.176559	0.266745
0.0435	-0.173037	0.235586
0.0436667	-0.169473	0.199793
0.0438333	-0.166057	0.162321
0.044	-0.162834	0.125109
0.0441667	-0.159564	0.0899694
0.0443333	-0.156299	0.0587662
0.0445	-0.153424	0.0328212
0.0446667	-0.15101	0.0134294
0.0448333	-0.148822	0.00279508
0.045	-0.146846	0.00365068
0.0451667	-0.145463	0.0183149
0.0453333	-0.145069	0.0466078
0.0455	-0.145604	0.0838133
0.0456667	-0.146619	0.122342
0.0458333	-0.147706	0.155144
0.046	-0.148618	0.177421
0.0461667	-0.149019	0.187065
0.0463333	-0.148588	0.184455
0.0465	-0.147346	0.171617
0.0466667	-0.145598	0.151406
0.0468333	-0.143776	0.126692
0.047	-0.142151	0.0997706
0.0471667	-0.140642	0.0728303
0.0473333	-0.139132	0.0480234
0.0475	-0.137602	0.0276929
0.0476667	-0.136047	0.014514
0.0478333	-0.134632	0.0104429
0.048	-0.133844	0.0178595
0.0481667	-0.134212	0.039445
0.0483333	-0.135802	0.0742728
0.0485	-0.138238	0.116904
0.0486667	-0.140934	0.159821
0.0488333	-0.143048	0.19579
0.049	-0.143913	0.219849
0.0491667	-0.143547	0.229869
0.0493333	-0.14228	0.226213
0.0495	-0.140334	0.211446
0.0496667	-0.137962	0.189132
0.0498333	-0.135513	0.1624
0.05	-0.133354	0.133552
0.0501667	-0.131687	0.104459
0.0503333	-0.130502	0.0770723
0.0505	-0.129794	0.0533241
0.0506667	-0.129234	0.035116
0.0508333	-0.128618	0.0253066
0.051	-0.128574	0.0275796
0.0511667	-0.129218	0.0446198
0.0513333	-0.12986	0.0760679
0.0515	-0.130522	0.11768
0.0516667	-0.132094	0.162983
0.0518333	-0.135178	0.205555
0.052	-0.139277	0.239921
0.0521667	-0.143435	0.262146
0.0523333	-0.147284	0.270448
0.0525	-0.150804	0.264944
0.0526667	-0.153707	0.247479
0.0528333	-0.155754	0.221289
0.053	-0.157083	0.189585
0.0531667	-0.157672	0.155182
0.0533333	-0.157537	0.121009
0.0535	-0.157194	0.0894456
0.0536667	-0.156598	0.0617491
0.0538333	-0.155133	0.038702
0.054	-0.153125	0.0209107
0.0541667	-0.151439	0.00845867
0.0543333	-0.150021	0.00114806
0.0545	-0.148411	-0.000414897
0.0546667	-0.147082	0.00614838
0.0548333	-0.146789	0.0235859
0.055	-0.147386	0.0520694
0.0551667	-0.148719	0.0881372
0.0553333	-0.151264	0.125982
0.0555	-0.15497	0.159388
0.0556667	-0.158926	0.183415
0.0558333	-0.162199	0.195588
0.056	-0.164297	0.195816
0.0561667	-0.165175	0.185465
0.0563333	-0.164996	0.166632
0.0565	-0.163872	0.141793
0.0566667	-0.161785	0.113713
0.0568333	-0.158948	0.084806
0.057	-0.156029	0.0568807
0.0571667	-0.153605	0.0322332
0.0573333	-0.151626	0.0138249
0.0575	-0.149747	0.00443919
0.0576667	-0.148121	0.0069073
0.0578333	-0.147382	0.023582
0.058	-0.147865	0.0538259
0.0581667	-0.149394	0.0930144
0.0583333	-0.151661	0.134521
0.0585	-0.154415	0.172048
0.0586667	-0.157101	0.200545
0.0588333	-0.158577	0.216794
0.059	-0.158093	0.219986
0.0591667	-0.156108	0.211047
0.0593333	-0.153425	0.191903
0.0595	-0.150405	0.165485
0.0596667	-0.147222	0.135066
0.0598333	-0.143987	0.103298
0.06	-0.14082	0.0721754
0.0601667	-0.137921	0.0431823
0.0603333	-0.135119	0.0173753
0.0605	-0.132157	-0.00381286
0.0606667	-0.129368	-0.0183082
0.0608333	-0.127128	-0.0240251
0.061	-0.125518	-0.018842
0.0611667	-0.124711	-0.00104211
0.0613333	-0.124778	0.0285429
0.0615	-0.12548	0.0654665
0.0616667	-0.126441	0.103432
0.0618333	-0.127098	0.136533
0.062	-0.126932	0.160405
0.0621667	-0.125938	0.172776
0.0623333	-0.124568	0.173565
0.0625	-0.123335	0.164407
0.0626667	-0.122222	0.147741
0.0628333	-0.120693	0.125933
0.063	-0.118585	0.100985
0.0631667	-0.116257	0.0747163
0.0633333	-0.114011	0.049165
0.0635	-0.111748	0.0270397
0.0636667	-0.109483	0.0112116
0.0638333	-0.107846	0.00407663
0.064	-0.107118	0.00823178
0.0641667	-0.106939	0.0257104
0.0643333	-0.107341	0.0555144
0.0645	-0.108739	0.0933597
0.0646667	-0.111154	0.133144
0.0648333	-0.114021	0.168482
0.065	-0.116586	0.194464
0.0651667	-0.118365	0.208633
0.0653333	-0.119289	0.210612
0.0655	-0.119265	0.201417
0.0656667	-0.117906	0.18309
0.0658333	-0.115169	0.158211
0.066	-0.111547	0.12946
0.0661667	-0.107673	0.0995624
0.0663333	-0.104164	0.0706195
0.0665	-0.1012	0.0437499
0.0666667	-0.0986351	0.0203009
0.0668333	-0.0966111	0.00240022
0.067	-0.0953542	-0.00756861
0.0671667	-0.0950762	-0.00685106
0.0673333	-0.0960613	0.0070238
0.0675	-0.0982063	0.0343998
0.0676667	-0.101229	0.0724209
0.0678333	-0.104885	0.11541
0.068	-0.108426	0.15658
0.0681667	-0.110917	0.19017
0.0683333	-0.112031	0.212413
0.0685	-0.111916	0.221473
0.0686667	-0.110592	0.217533
0.0688333	-0.108152	0.20265
0.069	-0.105316	0.179773
0.0691667	-0.102673	0.151691
0.0693333	-0.0999988	0.120858
0.0695	-0.0972684	0.0896544
0.0696667	-0.0951808	0.0599589
0.0698333	-0.0941696	0.0331933
0.07	-0.0937399	0.0107633
0.0701667	-0.0931231	-0.00648387
0.0703333	-0.0922337	-0.0181759
0.0705	-0.0915719	-0.0230863
0.0706667	-0.0915442	-0.0186811
0.0708333	-0.0921707	-0.00258803
0.071	-0.0933012	0.0251317
0.0711667	-0.0949093	0.060888
0.0713333	-0.0968537	0.0985887
0.0715	-0.0988394	0.13194
0.0716667	-0.100729	0.156531
0.0718333	-0.102165	0.170441
0.072	-0.102559	0.173361
0.0721667	-0.101989	0.166063
0.0723333	-0.100999	0.150495
0.0725	-0.0997527	0.129077
0.0726667	-0.0983069	0.103998
0.0728333	-0.0968126	0.0773908
0.073	-0.0952234	0.0512668
0.0731667	-0.09356	0.0274838
0.0733333	-0.0924301	0.00792775
0.0735	-0.0924134	-0.00552634
0.0736667	-0.093026	-0.010303
0.0738333	-0.0937296	-0.00298999
0.074	-0.0947598	0.0186349
0.0741667	-0.0961189	0.0535846
0.0743333	-0.0976227	0.0977961
0.0745	-0.0996317	0.145468
0.0746667	-0.102539	0.190286
0.0748333	-0.106229	0.226762
0.075	-0.110525	0.251139
0.0751667	-0.115187	0.2614
0.0753333	-0.119398	0.25724
0.0755	-0.122271	0.240277
0.0756667	-0.123686	0.213614
0.0758333	-0.124151	0.180673
0.076	-0.124129	0.144365
0.0761667	-0.123576	0.107002
0.0763333	-0.122352	0.0705105
0.0765	-0.120773	0.0366329
0.0766667	-0.11911	0.00684048
0.0768333	-0.117454	-0.0171359
0.077	-0.116077	-0.0328516
0.0771667	-0.115154	-0.0387284
0.0773333	-0.114775	-0.0341276
0.0775	-0.115148	-0.0179676
0.0776667	-0.11617	0.00907548
0.0778333	-0.117386	0.0424577
0.078	-0.118719	0.0753054
0.0781667	-0.120181	0.101139
0.0783333	-0.120785	0.115502
0.0785	-0.119352	0.11582
0.0786667	-0.115918	0.101046
0.0788333	-0.111329	0.0720414
0.079	-0.106387	0.0317066
0.0791667	-0.10156	-0.0158232
0.0793333	-0.0970663	-0.0660121
0.0795	-0.092957	-0.114708
0.0796667	-0.0890566	-0.158376
0.0798333	-0.0856465	-0.19284
0.08	-0.0835846	-0.212997
0.0801667	-0.0830495	-0.215677
0.0803333	-0.0834079	-0.202178
0.0805	-0.0843226	-0.17706
0.0806667	-0.0859006	-0.146433
0.0808333	-0.0878386	-0.117493
0.081	-0.0892633	-0.0962307
0.0811667	-0.0893313	-0.0858106
0.0813333	-0.0876596	-0.0882372
0.0815	-0.084749	-0.103647
0.0816667	-0.0817926	-0.128456
0.0818333	-0.079743	-0.158311
0.082	-0.0789605	-0.190169
0.0821667	-0.0793231	-0.220322
0.0823333	-0.0801765	-0.244318
0.0825	-0.080939	-0.258357
0.0826667	-0.0818086	-0.260451
0.0828333	-0.0828427	-0.252075
0.083	-0.0834394	-0.236971
0.0831667	-0.0835668	-0.218109
0.0833333	-0.0839713	-0.196258
0.0835	-0.0851155	-0.170474
0.0836667	-0.0866055	-0.140527
0.0838333	-0.0877255	-0.107575
0.084	-0.0883897	-0.0729286
0.0841667	-0.0891432	-0.0389063
0.0843333	-0.090439	-0.00942686
0.0845	-0.0921379	0.0119335
0.0846667	-0.09345	0.023705
0.0848333	-0.0933424	0.0258381
0.085	-0.0913032	0.0186524
0.0851667	-0.0878397	0.00391027
0.0853333	-0.0838638	-0.0153332
0.0855	-0.0797375	-0.0365365
0.0856667	-0.075497	-0.0578389
0.0858333	-0.0714012	-0.077702
0.086	-0.0678867	-0.0943906
0.0861667	-0.0650947	-0.105919
0.0863333	-0.0627697	-0.11089
0.0865	-0.0609432	-0.10756
0.0866667	-0.0598037	-0.0935358
0.0868333	-0.0592516	-0.068172
0.087	-0.0592798	-0.0345582
0.0871667	-0.0599415	0.00130903
0.0873333	-0.0608704	0.0338341
0.0875	-0.0614426	0.0592803
0.0876667	-0.0613785	0.0750904
0.0878333	-0.060942	0.0806316
0.088	-0.0606022	0.0774934
0.0881667	-0.0604252	0.0677726
0.0883333	-0.0602013	0.0528644
0.0885	-0.0602411	0.0343379
0.0886667	-0.0609618	0.0144643
0.0888333	-0.061963	-0.00503834
0.089	-0.0626715	-0.0230121
0.0891667	-0.0631967	-0.037961
0.0893333	-0.0636357	-0.0488253
0.0895	-0.0635857	-0.0551003
0.0896667	-0.0630423	-0.055066
0.0898333	-0.0627839	-0.0456439
0.09	-0.0632744	-0.024713
0.0901667	-0.0642181	0.00689993
0.0903333	-0.0654624	0.0454224
0.0905	-0.067247	0.0855326
0.0906667	-0.0697678	0.121588
0.0908333	-0.072779	0.148629
0.091	-0.0755686	0.163733
0.0911667	-0.0776058	0.166561
0.0913333	-0.0788804	0.1585
0.0915	-0.0795024	0.141842
0.0916667	-0.0794902	0.119317
0.0918333	-0.0791093	0.0934178
0.092	-0.0786327	0.0659638
0.0921667	-0.0782004	0.0385354
0.0923333	-0.0782665	0.012628
0.0925	-0.0787143	-0.0108663
0.0926667	-0.0785557	-0.0308766
0.0928333	-0.0775675	-0.0455192
0.093	-0.0764944	-0.0525584
0.0931667	-0.0758821	-0.0491672
0.0933333	-0.0759269	-0.0330957
0.0935	-0.076831	-0.0055806
0.0936667	-0.078673	0.0281724
0.0938333	-0.0810606	0.0617435
0.094	-0.0833856	0.0898595
0.0941667	-0.0852569	0.108891
0.0943333	-0.0863866	0.117196
0.0945	-0.0867539	0.115192
0.0946667	-0.0865843	0.104714
0.0948333	-0.0858573	0.0882039
0.095	-0.0845248	0.0678152
0.0951667	-0.0827822	0.04529
0.0953333	-0.0807329	0.0221377
0.0955	-0.0783634	-0.000316836
0.0956667	-0.0757828	-0.0205324
0.0958333	-0.255127	0.0726318
0.096	-0.255017	0.0723254
0.0961667	-0.254783	0.0709155
0.0963333	-0.25471	0.0678631
0.0965	-0.254617	0.0635124
0.0966667	-0.253979	0.0590891
0.0968333	-0.25305	0.0560839
0.097	-0.252449	0.0557372
0.0971667	-0.252401	0.0605493
0.0973333	-0.253012	0.0744182
0.0975	-0.254359	0.0997105
0.0976667	-0.256338	0.135733
0.0978333	-0.258932	0.178826
0.098	-0.262184	0.223115
0.0981667	-0.265443	0.26232
0.0983333	-0.267403	0.291591
0.0985	-0.267563	0.308317
0.0986667	-0.266447	0.311234
0.0988333	-0.264343	0.300495
0.099	-0.261371	0.278914
0.0991667	-0.258044	0.250372
0.0993333	-0.254825	0.217765
0.0995	-0.251767	0.183755
0.0996667	-0.248764	0.15078
0.0998333	-0.245762	0.12031
0.1	-0.24291	0.0946528
0.100167	-0.240671	0.077723
0.100333	-0.239379	0.0732291
0.1005	-0.23897	0.0836047
0.100667	-0.239282	0.108481
0.100833	-0.240112	0.143753
0.101	-0.241225	0.183655
0.101167	-0.242406	0.222597
0.101333	-0.243486	0.255149
0.1015	-0.244557	0.276556
0.101667	-0.245743	0.284629
0.101833	-0.246767	0.280149
0.102	-0.247164	0.265061
0.102167	-0.246728	0.241754
0.102333	-0.245708	0.213527
0.1025	-0.24456	0.183751
0.102667	-0.243428	0.154645
0.102833	-0.242288	0.127999
0.103	-0.241405	0.106518
0.103167	-0.241126	0.0935386
0.103333	-0.241428	0.0922195
0.1035	-0.242165	0.104509
0.103667	-0.243593	0.129031
0.103833	-0.245833	0.160507
0.104	-0.248317	0.192265
0.104167	-0.250426	0.21854
0.104333	-0.251734	0.235013
0.1045	-0.25187	0.239624
0.104667	-0.250779	0.23293
0.104833	-0.248707	0.217053
0.105	-0.246177	0.194552
0.105167	-0.243699	0.167558
0.105333	-0.24133	0.137829
0.1055	-0.239086	0.10739
0.105667	-0.237257	0.0782873
0.105833	-0.235975	0.0523966
0.106	-0.235134	0.0319943
0.106167	-0.234694	0.0195393
0.106333	-0.234643	0.017447
0.1065	-0.235042	0.0283586
0.106667	-0.235968	0.0526781
0.106833	-0.237212	0.0861492
0.107	-0.238524	0.122335
0.107167	-0.23965	0.155424
0.107333	-0.239949	0.180498
0.1075	-0.238786	0.194342
0.107667	-0.236227	0.196563
0.107833	-0.232789	0.189018
0.108	-0.228805	0.174003
0.108167	-0.224424	0.153552
0.108333	-0.21979	0.129947
0.1085	-0.215153	0.105215
0.108667	-0.211014	0.0809823
0.108833	-0.207632	0.0594939
0.109	-0.20489	0.0437042
0.109167	-0.202993	0.0372565
0.109333	-0.202275	0.0441329
0.1095	-0.202763	0.0658538
0.109667	-0.204157	0.0997134
0.109833	-0.205989	0.140967
0.11	-0.208341	0.18453
0.110167	-0.211585	0.224592
0.110333	-0.215049	0.255943
0.1105	-0.217548	0.275897
0.110667	-0.218774	0.283581
0.110833	-0.218779	0.278868
0.111	-0.21751	0.262931
0.111167	-0.215342	0.238325
0.111333	-0.21282	0.207831
0.1115	-0.210116	0.173865
0.111667	-0.207247	0.138754
0.111833	-0.204553	0.104594
0.112	-0.202463	0.0730281
0.112167	-0.200891	0.045662
0.112333	-0.199699	0.0244254
0.1125	-0.198992	0.0113079
0.112667	-0.198409	0.00882081
0.112833	-0.197658	0.0201538
0.113	-0.197343	0.0464322
0.113167	-0.198087	0.0843274
0.113333	-0.199604	0.127554
0.1135	-0.201011	0.169734
0.113667	-0.201461	0.205225
0.113833	-0.200355	0.229488
0.114	-0.197635	0.240182
0.114167	-0.194147	0.237331
0.114333	-0.19087	0.2231
0.1145	-0.187918	0.200752
0.114667	-0.185075	0.17304
0.114833	-0.182351	0.141986
0.115	-0.179789	0.109457
0.115167	-0.177756	0.077855
0.115333	-0.176601	0.0496546
0.1155	-0.175683	0.0261527
0.115667	-0.174245	0.0090718
0.115833	-0.172631	0.00219392
0.116	-0.171444	0.00912898
0.116167	-0.170786	0.0306228
0.116333	-0.170993	0.0640718
0.1165	-0.172453	0.104523
0.116667	-0.174693	0.145689
0.116833	-0.176812	0.181365
0.117	-0.178216	0.207362
0.117167	-0.178621	0.221644
0.117333	-0.177923	0.223295
0.1175	-0.176317	0.212747
0.117667	-0.174324	0.192276
0.117833	-0.172281	0.164958
0.118	-0.17013	0.133397
0.118167	-0.167912	0.0997805
0.118333	-0.165889	0.0662108
0.1185	-0.164057	0.0344727
0.118667	-0.162199	0.006134
0.118833	-0.160396	-0.0172579
0.119	-0.158483	-0.0345501
0.119167	-0.155814	-0.0449727
0.119333	-0.152446	-0.0470634
0.1195	-0.149477	-0.0380841
0.119667	-0.147822	-0.0158136
0.119833	-0.147242	0.0185605
0.12	-0.146509	0.0596208
0.120167	-0.144602	0.0998626
0.120333	-0.141392	0.1327
0.1205	-0.137229	0.1541
0.120667	-0.132723	0.162377
0.120833	-0.128328	0.157638
0.121	-0.124167	0.141825
0.121167	-0.120607	0.118214
0.121333	-0.118073	0.0902656
0.1215	-0.116598	0.0610523
0.121667	-0.115982	0.0337359
0.121833	-0.115763	0.0114178
0.122	-0.115473	-0.00358546
0.122167	-0.115039	-0.00853702
0.122333	-0.11448	0.000170593
0.1225	-0.113707	0.0240233
0.122667	-0.112762	0.0598279
0.122833	-0.11185	0.100924
0.123	-0.111142	0.140211
0.123167	-0.11094	0.172027
0.123333	-0.111362	0.192451
0.1235	-0.111727	0.199337
0.123667	-0.111474	0.193097
0.123833	-0.110919	0.176409
0.124	-0.110515	0.152528
0.124167	-0.11032	0.124648
0.124333	-0.110232	0.0953699
0.1245	-0.110354	0.0660643
0.124667	-0.110693	0.0382371
0.124833	-0.11093	0.0148007
0.125	-0.110916	-0.000848184
0.125167	-0.110964	-0.00548375
0.125333	-0.111623	0.00357962
0.1255	-0.112812	0.0263202
0.125667	-0.113766	0.0588063
0.125833	-0.114297	0.0949692
0.126	-0.114748	0.128397
0.126167	-0.115202	0.153562
0.126333	-0.115536	0.167433
0.1265	-0.115411	0.169621
0.126667	-0.114886	0.16137
0.126833	-0.114795	0.145003
0.127	-0.115449	0.122956
0.127167	-0.116561	0.09731
0.127333	-0.11782	0.0701164
0.1275	-0.11827	0.0432507
0.127667	-0.117179	0.0186492
0.127833	-0.115383	-0.00093041
0.128	-0.114039	-0.0117084
0.128167	-0.113068	-0.0100924
0.128333	-0.112084	0.00556893
0.1285	-0.111587	0.0339746
0.128667	-0.112196	0.0702939
0.128833	-0.113705	0.106999
0.129	-0.115375	0.137204
0.129167	-0.116641	0.157486
0.129333	-0.117509	0.167323
0.1295	-0.118199	0.167066
0.129667	-0.118419	0.156963
0.129833	-0.11783	0.138242
0.13	-0.116813	0.113972
0.130167	-0.115933	0.0871382
0.130333	-0.115132	0.0594482
0.1305	-0.114165	0.0325573
0.130667	-0.113383	0.00827166
0.130833	-0.113034	-0.0117489
0.131	-0.112653	-0.0253298
0.131167	-0.111713	-0.029743
0.131333	-0.110171	-0.0223636
0.1315	-0.10863	-0.00184264
0.131667	-0.107919	0.030281
0.131833	-0.108453	0.0687666
0.132	-0.11022	0.106506
0.132167	-0.112783	0.137861
0.132333	-0.115424	0.159269
0.1325	-0.117541	0.168446
0.132667	-0.118938	0.165311
0.132833	-0.120092	0.15216
0.133	-0.121364	0.131779
0.133167	-0.122323	0.106474
0.133333	-0.122764	0.0788788
0.1335	-0.123372	0.052008
0.133667	-0.124723	0.0282626
0.133833	-0.126271	0.0095507
0.134	-0.127184	-0.00155572
0.134167	-0.127432	-0.00206911
0.134333	-0.127351	0.0101541
0.1345	-0.127426	0.0354289
0.134667	-0.127981	0.0706101
0.134833	-0.128801	0.109233
0.135	-0.129833	0.144447
0.135167	-0.13084	0.171091
0.135333	-0.131082	0.1866
0.1355	-0.130648	0.190829
0.135667	-0.130122	0.184623
0.135833	-0.129248	0.169452
0.136	-0.127614	0.147483
0.136167	-0.125521	0.121259
0.136333	-0.123509	0.0934316
0.1365	-0.121766	0.0661313
0.136667	-0.120182	0.0407982
0.136833	-0.118607	0.0183879
0.137	-0.116779	-0.000145512
0.137167	-0.114799	-0.0128897
0.137333	-0.113133	-0.0173735
0.1375	-0.111673	-0.0118052
0.137667	-0.110279	0.00487976
0.137833	-0.109229	0.0326305
0.138	-0.108613	0.0684048
0.138167	-0.108686	0.106304
0.138333	-0.110096	0.140811
0.1385	-0.113022	0.16811
0.138667	-0.116686	0.185258
0.138833	-0.119799	0.190763
0.139	-0.121574	0.18492
0.139167	-0.122384	0.169591
0.139333	-0.12286	0.148018
0.1395	-0.122881	0.122955
0.139667	-0.12221	0.0958707
0.139833	-0.12126	0.0686365
0.14	-0.120526	0.043402
0.140167	-0.119732	0.0214464
0.140333	-0.118442	0.00449101
0.1405	-0.11692	-0.00476987
0.140667	-0.115628	-0.00436246
0.140833	-0.114796	0.00706658
0.141	-0.114577	0.0303271
0.141167	-0.115094	0.0636092
0.141333	-0.116451	0.102244
0.1415	-0.118564	0.140638
0.141667	-0.120795	0.173514
0.141833	-0.12239	0.196716
0.142	-0.123356	0.208198
0.142167	-0.123934	0.208036
0.142333	-0.123952	0.197692
0.1425	-0.123623	0.17918
0.142667	-0.12341	0.154551
0.142833	-0.123147	0.126193
0.143	-0.122518	0.0965709
0.143167	-0.121619	0.0676773
0.143333	-0.120601	0.0409469
0.1435	-0.119514	0.0171566
0.143667	-0.118318	-0.00292286
0.143833	-0.116792	-0.017796
0.144	-0.115011	-0.0253654
0.144167	-0.113309	-0.0236774
0.144333	-0.11183	-0.012039
0.1445	-0.110859	0.00804888
0.144667	-0.110676	0.0327385
0.144833	-0.110838	0.0570169
0.145	-0.110513	0.0765256
0.145167	-0.109579	0.0887178
0.145333	-0.1085	0.092793
0.1455	-0.107679	0.0891351
0.145667	-0.107487	0.0792122
0.145833	-0.108002	0.0648673
0.146	-0.108758	0.0475703
0.146167	-0.109135	0.0289729
0.146333	-0.108878	0.0109312
0.1465	-0.108234	-0.00541515
0.146667	-0.10745	-0.0197594
0.146833	-0.10643	-0.0319065
0.147	-0.104887	-0.0414604
0.147167	-0.102673	-0.0481976
0.147333	-0.100207	-0.0522869
0.1475	-0.0980097	-0.0535468
0.147667	-0.0959716	-0.0506968
0.147833	-0.0939542	-0.0417321
0.148	-0.0923081	-0.0245897
0.148167	-0.0912837	0.00186869
0.148333	-0.0907587	0.0363926
0.1485	-0.0905164	0.0748723
0.148667	-0.0902298	0.111566
0.148833	-0.0894045	0.141366
0.149	-0.0879631	0.161568
0.149167	-0.0864077	0.171467
0.149333	-0.0850023	0.171366
0.1495	-0.083763	0.162732
0.149667	-0.0830669	0.147732
0.149833	-0.0831613	0.128359
0.15	-0.0836262	0.106532
0.150167	-0.0841198	0.0843982
0.150333	-0.0849783	0.063749
0.1505	-0.0867557	0.0454222
0.150667	-0.0894209	0.0298119
0.150833	-0.0919509	0.0173755
0.151	-0.0931309	0.00956078
0.151167	-0.0926209	0.00892933
0.151333	-0.0909822	0.0170432
0.1515	-0.0888679	0.0330186
0.151667	-0.0864835	0.0534941
0.151833	-0.0840684	0.0732004
0.152	-0.0820973	0.0868957
0.152167	-0.0805999	0.0914316
0.152333	-0.0790118	0.0860702
0.1525	-0.077107	0.0718138
0.152667	-0.0752624	0.0505956
0.152833	-0.0737271	0.0247235
0.153	-0.0724768	-0.00342159
0.153167	-0.071522	-0.0322037
0.153333	-0.0710111	-0.0604366
0.1535	-0.0709791	-0.086172
0.153667	-0.0712384	-0.107895
0.153833	-0.0715228	-0.125846
0.154	-0.0715062	-0.140719
0.154167	-0.071108	-0.15251
0.154333	-0.0707727	-0.160875
0.1545	-0.0708419	-0.166138
0.154667	-0.0708217	-0.168933
0.154833	-0.0702064	-0.168309
0.155	-0.0691793	-0.162331
0.155167	-0.0678602	-0.150134
0.155333	-0.0664415	-0.13106
0.1555	-0.0657532	-0.104892
0.155667	-0.0664343	-0.0748549
0.155833	-0.0681534	-0.0468206
0.156	-0.0700508	-0.0256018
0.156167	-0.0715485	-0.013915
0.156333	-0.0726634	-0.0128224
0.1565	-0.0735782	-0.0213083
0.156667	-0.0743217	-0.0368673
0.156833	-0.0749079	-0.0570055
0.157	-0.075389	-0.079382
0.157167	-0.0758745	-0.102236
0.157333	-0.0765505	-0.124658
0.1575	-0.0777785	-0.145092
0.157667	-0.0797216	-0.161888
0.157833	-0.0816484	-0.175228
0.158	-0.0825214	-0.185728
0.158167	-0.0821765	-0.192306
0.158333	-0.0810905	-0.19277
0.1585	-0.0796349	-0.184758
0.158667	-0.0780592	-0.166311
0.158833	-0.0766249	-0.137971
0.159	-0.075703	-0.103809
0.159167	-0.0757048	-0.0693211
0.159333	-0.0766541	-0.0398024
0.1595	-0.078135	-0.0195254
0.159667	-0.079617	-0.0103648
0.159833	-0.0805457	-0.0119068
0.16	-0.0808058	-0.0224807
0.160167	-0.0808493	-0.0397687
0.160333	-0.0806521	-0.0616468
0.1605	-0.079624	-0.0861575
0.160667	-0.0777104	-0.110657
0.160833	-0.0755666	-0.132753
0.161	-0.0736985	-0.151912
0.161167	-0.0719062	-0.168665
0.161333	-0.0699693	-0.182862
0.1615	-0.0681442	-0.194143
0.161667	-0.0663844	-0.203022
0.161833	-0.0645748	-0.209654
0.162	-0.0633751	-0.213104
0.162167	-0.0631041	-0.213599
0.162333	-0.0629787	-0.212871
0.1625	-0.0625583	-0.21062
0.162667	-0.0621908	-0.204042
0.162833	-0.0619297	-0.190904
0.163	-0.0615617	-0.170274
0.163167	-0.0612712	-0.14279
0.163333	-0.0613846	-0.112021
0.1635	-0.0617418	-0.0828418
0.163667	-0.0618406	-0.0587982
0.163833	-0.0615083	-0.0425044
0.164	-0.0607975	-0.0358298
0.164167	-0.0595885	-0.0387651
0.164333	-0.0579795	-0.0494479
0.1645	-0.0563779	-0.065338
0.164667	-0.0548117	-0.0846028
0.164833	-0.0527322	-0.10579
0.165	-0.0498592	-0.126789
0.165167	-0.0466591	-0.145724
0.165333	-0.0435369	-0.162132
0.1655	-0.0405746	-0.176099
0.165667	-0.0380202	-0.187335
0.165833	-0.035859	-0.196199
0.166	-0.0336456	-0.203485
0.166167	-0.0313558	-0.208954
0.166333	-0.0294032	-0.212046
0.1665	-0.0278299	-0.212482
0.166667	-0.026614	-0.208839
0.166833	-0.0260681	-0.198699
0.167	-0.0261061	-0.180157
0.167167	-0.0264665	-0.151759
0.167333	-0.0273785	-0.113744
0.1675	-0.0291103	-0.0705316
0.167667	-0.0315659	-0.0290389
0.167833	-0.0344354	0.00544991
0.168	-0.0374319	0.0299677
0.168167	-0.0403793	0.0426831
0.168333	-0.0433098	0.0435538
0.1685	-0.0463679	0.0343008
0.168667	-0.0494461	0.0170066
0.168833	-0.0521795	-0.00587559
0.169	-0.0540799	-0.0314409
0.169167	-0.0547543	-0.0575067
0.169333	-0.0545329	-0.0827066
0.1695	-0.0540614	-0.105695
0.169667	-0.053069	-0.125871
0.169833	-0.0510499	-0.143537
0.17	-0.0484857	-0.158516
0.170167	-0.0460536	-0.170356
0.170333	-0.0438404	-0.179463
0.1705	-0.0417798	-0.186883
0.170667	-0.0399704	-0.192999
0.170833	-0.038449	-0.197487
0.171	-0.0369036	-0.200601
0.171167	-0.0351421	-0.202823
0.171333	-0.0336042	-0.203755
0.1715	-0.03237	-0.203258
0.171667	-0.0306329	-0.202711
0.171833	-0.0282778	-0.202912
0.172	-0.0261873	-0.202805
0.172167	-0.0246369	-0.201932
0.172333	-0.0231405	-0.199896
0.1725	-0.0213822	-0.194533
0.172667	-0.0196218	-0.183838
0.172833	-0.0185713	-0.165485
0.173	-0.0187776	-0.136174
0.173167	-0.0201778	-0.0953562
0.173333	-0.0223845	-0.0468841
0.1735	-0.0252129	0.00270739
0.173667	-0.0286848	0.0463425
0.173833	-0.0326398	0.0785768
0.174	-0.0366544	0.0969817
0.174167	-0.0402559	0.101583
0.174333	-0.0430948	0.0934863
0.1745	-0.0450819	0.0749557
0.174667	-0.046271	0.0493345
0.174833	-0.0466077	0.0198942
0.175	-0.0459479	-0.0105067
0.175167	-0.0441994	-0.0396331
0.175333	-0.0414764	-0.066252
0.1755	-0.0379979	-0.0897804
0.175667	-0.0339528	-0.10997
0.175833	-0.0296485	-0.126991
0.176	-0.0252357	-0.141225
0.176167	-0.020636	-0.152688
0.176333	-0.0162184	-0.161196
0.1765	-0.0123645	-0.167272
0.176667	-0.00860548	-0.172067
0.176833	-0.00475581	-0.176323
0.177	-0.00158625	-0.179983
0.177167	0.0007577	-0.182483
0.177333	0.00283129	-0.183499
0.1775	0.00446686	-0.183825
0.177667	0.00532241	-0.184448
0.177833	0.00562739	-0.185205
0.178	0.00534028	-0.185437
0.178167	0.00421847	-0.185263
0.178333	0.00285373	-0.185377
0.1785	0.00168185	-0.185359
0.178667	0.000194592	-0.183978
0.178833	-0.00133868	-0.180509
0.179	-0.00217767	-0.173774
0.179167	-0.00285335	-0.161501
0.179333	-0.00428934	-0.141074
0.1795	-0.00676561	-0.110813
0.179667	-0.0101146	-0.0720975
0.179833	-0.0137358	-0.0300411
0.18	-0.0168853	0.008806
0.180167	-0.0193015	0.0392935
0.180333	-0.0212556	0.0588759
0.1805	-0.0227196	0.0671275
0.180667	-0.0231388	0.0647286
0.180833	-0.0224069	0.0534858
0.181	-0.0210385	0.0361322
0.181167	-0.0193779	0.014881
0.181333	-0.0173386	-0.0085662
0.1815	-0.0149382	-0.032151
0.181667	-0.0123521	-0.0542298
0.181833	-0.00948064	-0.0741697
0.182	-0.00642406	-0.0919881
0.182167	-0.00356168	-0.10783
0.182333	-0.000802513	-0.121572
0.1825	0.00210397	-0.133245
0.182667	0.00484079	-0.143179
0.182833	0.0070651	-0.151574
0.183	0.00914978	-0.158296
0.183167	0.0116148	-0.163258
0.183333	0.0143342	-0.167072
0.1835	0.016845	-0.170309
0.183667	0.0190877	-0.172733
0.183833	0.0212848	-0.174232
0.184	0.0233558	-0.175251
0.184167	0.0251428	-0.176069
0.184333	0.0268861	-0.176601
0.1845	0.0286268	-0.17673
0.184667	0.0297479	-0.175639
0.184833	0.0298484	-0.171255
0.185	0.0291147	-0.161465
0.185167	0.0278437	-0.14433
0.185333	0.026226	-0.11723
0.1855	0.0239459	-0.0782315
0.185667	0.0204743	-0.0283849
0.185833	0.0163335	0.0279811
0.186	0.0125069	0.0850664
0.186167	0.00913396	0.137218
0.186333	0.00620649	0.179278
0.1865	0.00386114	0.207281
0.186667	0.00199173	0.219596
0.186833	0.000596088	0.216908
0.187	-0.000242641	0.201363
0.187167	-0.000479107	0.175904
0.187333	-0.000138737	0.143688
0.1875	0.000151977	0.107771
0.187667	-0.000433764	0.0708947
0.187833	-0.00155904	0.0349254
0.188	-0.0023148	0.00135466
0.188167	-0.00271772	-0.0281159
0.188333	-0.00286811	-0.051989
0.1885	-0.00233578	-0.068804
0.188667	-0.00112034	-0.0771616
0.188833	0.000607163	-0.0751095
0.189	0.00249976	-0.0599333
0.189167	0.00378236	-0.0315045
0.189333	0.00442363	0.00546859
0.1895	0.0049637	0.0439827
0.189667	0.00542613	0.0778845
0.189833	0.00552582	0.10233
0.19	0.00523779	0.114211
0.190167	0.00510424	0.112859
0.190333	0.00571787	0.0988983
0.1905	0.00710459	0.0741193
0.190667	0.00916989	0.042174
0.190833	0.0116148	0.00723685
0.191	0.0140393	-0.0282955
0.191167	0.0168872	-0.0639846
0.191333	0.0207892	-0.0986048
0.1915	0.0254887	-0.129636
0.191667	0.0308923	-0.15662
0.191833	0.0377352	-0.180932
0.192	0.0455152	-0.200902
0.192167	0.0528116	-0.212923
0.192333	0.0602782	-0.217109
0.1925	0.068731	-0.215266
0.192667	0.0764388	-0.206383
0.192833	0.0824304	-0.188974
0.193	0.0877596	-0.164296
0.193167	0.0921377	-0.13551
0.193333	0.0942365	-0.107102
0.1935	0.093755	-0.083473
0.193667	0.0910262	-0.0661923
0.193833	0.0867689	-0.0557683
0.194	0.081996	-0.0529202
0.194167	0.0771286	-0.0554718
0.194333	0.0722241	-0.0581067
0.1945	0.0680206	-0.056759
0.194667	0.0653827	-0.0515558
0.194833	0.0641263	-0.0448128
0.195	0.0635196	-0.0380531
0.195167	0.063219	-0.0322302
0.195333	0.0632798	-0.0289222
0.1955	0.0641007	-0.029362
0.195667	0.0659192	-0.0331445
0.195833	0.0681395	-0.0388894
0.196	0.0699427	-0.0455049
0.196167	0.0710944	-0.0522698
0.196333	0.0717482	-0.05825
0.1965	0.0719749	-0.0618125
0.196667	0.0718666	-0.0607803
0.196833	0.0718464	-0.0540284
0.197	0.0720558	-0.0415277
0.197167	0.0720955	-0.0222749
0.197333	0.0716982	0.00486057
0.1975	0.0706236	0.0385365
0.197667	0.0688946	0.0750009
0.197833	0.0672647	0.110098
0.198	0.0663012	0.139972
0.198167	0.065959	0.160799
0.198333	0.0663491	0.170353
0.1985	0.0676311	0.169254
0.198667	0.0692533	0.159881
0.198833	0.0706815	0.144232
0.199	0.0721953	0.123057
0.199167	0.0738386	0.0980537
0.199333	0.0752736	0.0724078
0.1995	0.0768764	0.0480359
0.199667	0.0789975	0.0251764
0.199833	0.0811948	0.00390967
0.2	0.0832582	-0.0152095
0.200167	0.0854439	-0.0312807
0.200333	0.087796	-0.0440816
0.2005	0.0902007	-0.0543945
0.200667	0.092685	-0.0627429
0.200833	0.0949104	-0.0689156
0.201	0.0962211	-0.0730257
0.201167	0.0969073	-0.075967
0.201333	0.0976404	-0.0784679
0.2015	0.0982589	-0.080559
0.201667	0.0986316	-0.0821642
0.201833	0.0990865	-0.0832185
0.202	0.0998088	-0.0838041
0.202167	0.100755	-0.0846489
0.202333	0.101928	-0.0861743
0.2025	0.103501	-0.0876582
0.202667	0.105408	-0.0889349
0.202833	0.107246	-0.0912878
0.203	0.108524	-0.0947608
0.203167	0.108961	-0.0976803
0.203333	0.109087	-0.0998204
0.2035	-0.0488281	-0.00976562
0.203667	-0.0485033	-0.00977175
0.203833	-0.0472608	-0.00986099
0.204	-0.045217	-0.0101312
0.204167	-0.0431178	-0.0106061
0.204333	-0.041268	-0.0112721
0.2045	-0.0395613	-0.0119705
0.204667	-0.0379916	-0.0125231
0.204833	-0.0364949	-0.013036
0.205	-0.03492	-0.013568
0.205167	-0.0333664	-0.0139408
0.205333	-0.0319512	-0.0142245
0.2055	-0.0305485	-0.0146856
0.205667	-0.0290948	-0.0153155
0.205833	-0.0275782	-0.0159783
0.206	-0.0259163	-0.0165234
0.206167	-0.0243008	-0.0166794
0.206333	-0.0230532	-0.0164999
0.2065	-0.0221418	-0.0163954
0.206667	-0.021415	-0.0165067
0.206833	-0.0208405	-0.016772
0.207	-0.0203853	-0.0171945
0.207167	-0.0200247	-0.0175918
0.207333	-0.0198213	-0.0177389
0.2075	-0.0198759	-0.0178485
0.207667	-0.020061	-0.0184462
0.207833	-0.0202229	-0.0197992
0.208	-0.0204612	-0.0217241
0.208167	-0.0206374	-0.0238242
0.208333	-0.0204531	-0.0256781
0.2085	-0.019979	-0.0271822
0.208667	-0.0193815	-0.028617
0.208833	-0.0188081	-0.0300637
0.209	-0.0183882	-0.0312608
0.209167	-0.0178614	-0.0319443
0.209333	-0.0170816	-0.0318942
0.2095	-0.016625	-0.0309915
0.209667	-0.0168354	-0.0294919
0.209833	-0.0170704	-0.0277546
0.21	-0.0169285	-0.0255141
0.210167	-0.0168872	-0.0217335
0.210333	-0.0172019	-0.0151667
0.2105	-0.0177746	-0.00484012
0.210667	-0.0187121	0.0102428
0.210833	-0.0202003	0.0311052
0.211	-0.0223942	0.0581841
0.211167	-0.0251707	0.0916342
0.211333	-0.0278283	0.131515
0.2115	-0.0295586	0.176906
0.211667	-0.030157	0.225648
0.211833	-0.0299568	0.27486
0.212	-0.0293648	0.321248
0.212167	-0.0287223	0.361399
0.212333	-0.0281909	0.392095
0.2125	-0.0274732	0.41089
0.212667	-0.0261114	0.417001
0.212833	-0.0241211	0.41125
0.213	-0.021765	0.395254
0.213167	-0.0191615	0.370858
0.213333	-0.0164428	0.339977
0.2135	-0.0137094	0.304789
0.213667	-0.0110268	0.267704
0.213833	-0.00846961	0.230769
0.214	-0.00598383	0.195207
0.214167	-0.00354739	0.161678
0.214333	-0.00134446	0.130907
0.2145	0.000390815	0.103484
0.214667	0.00176644	0.0792445
0.214833	0.00321768	0.0578978
0.215	0.00477244	0.0396674
0.215167	0.00603579	0.024624
0.215333	0.0070598	0.0121466
0.2155	0.0082158	0.00146525
0.215667	0.00951066	-0.0076292
0.215833	0.0107844	-0.0150121
0.216	0.0118627	-0.0208392
0.216167	0.0123551	-0.0253352
0.216333	0.0121257	-0.0284572
0.2165	0.0115868	-0.0302448
0.216667	0.0112359	-0.0309964
0.216833	0.0114259	-0.0310293
0.217	0.0122112	-0.030617
0.217167	0.0133702	-0.030075
0.217333	0.0147126	-0.0296036
0.2175	0.0160586	-0.0291418
0.217667	0.0172437	-0.0286559
0.217833	0.0181385	-0.0281628
0.218	0.0185055	-0.0275148
0.218167	0.0183513	-0.0269054
0.218333	0.0181633	-0.0268537
0.2185	0.0180975	-0.0273539
0.218667	0.0178396	-0.0280392
0.218833	0.0174423	-0.0286042
0.219	0.0172205	-0.0287648
0.219167	0.0172394	-0.0284692
0.219333	0.0172456	-0.0277946
0.2195	0.0169919	-0.0266736
0.219667	0.0166042	-0.0253074
0.219833	0.0162046	-0.0243105
0.22	0.0155843	-0.0239001
0.220167	0.0146639	-0.0238314
0.220333	0.0136924	-0.0240058
0.2205	0.0127968	-0.0242239
0.220667	0.0119606	-0.0241462
0.220833	0.0113338	-0.0238115
0.221	0.0109898	-0.0234552
0.221167	0.0106891	-0.022936
0.221333	0.0102812	-0.022158
0.2215	0.0100762	-0.0216196
0.221667	0.0104285	-0.0213394
0.221833	0.0111467	-0.0205978
0.222	0.0117659	-0.0193868
0.222167	0.0119718	-0.0182357
0.222333	0.0114975	-0.0173503
0.2225	0.010472	-0.0169209
0.222667	0.00950019	-0.0169778
0.222833	0.00882474	-0.0172991
0.223	0.00824651	-0.017807
0.223167	0.00772193	-0.0182835
0.223333	0.00739646	-0.0183277
0.2235	0.00735967	-0.0178889
0.223667	0.00768257	-0.0172246
0.223833	0.0083389	-0.0164752
0.224	0.00901539	-0.0156824
0.224167	0.00939304	-0.0149744
0.224333	0.00934034	-0.0144513
0.2245	0.00881363	-0.0141317
0.224667	0.0079088	-0.0139376
0.224833	0.00676674	-0.013717
0.225	0.00557043	-0.0135523
0.225167	0.00463767	-0.0136266
0.225333	0.00405918	-0.0137748
0.2255	0.00367468	-0.0138235
0.225667	0.00343934	-0.0140743
0.225833	0.00329405	-0.0147715
0.226	0.00308949	-0.0154723
0.226167	0.00282656	-0.0156472
0.226333	0.00266991	-0.0155871
0.2265	0.00276559	-0.016031
0.226667	0.00302768	-0.0171116
0.226833	0.00325898	-0.0182135
0.227	0.00360518	-0.019026
0.227167	0.00415047	-0.019986
0.227333	0.00431997	-0.0212822
0.2275	0.00379972	-0.0226899
0.227667	0.0030444	-0.024105
0.227833	0.00230319	-0.0253316
0.228	0.00152025	-0.0262283
0.228167	0.000883765	-0.0269273
0.228333	0.000606838	-0.0275414
0.2285	0.000742094	-0.0281376
0.228667	0.00130855	-0.0288153
0.228833	0.00217346	-0.0296318
0.229	0.00309287	-0.0305269
0.229167	0.00398563	-0.0314556
0.229333	0.00479571	-0.0324846
0.2295	0.00534674	-0.033489
0.229667	0.00557091	-0.0340906
0.229833	0.00559811	-0.0340974
0.23	0.00556423	-0.0337774
0.230167	0.00550001	-0.0335004
0.230333	0.00539699	-0.0332302
0.2305	0.00517318	-0.0327348
0.230667	0.00480406	-0.0320858
0.230833	0.00462271	-0.0315742
0.231	0.00483373	-0.03129
0.231167	0.00501591	-0.0310211
0.231333	0.00479723	-0.0306796
0.2315	0.00435742	-0.0303985
0.231667	0.00404402	-0.0300929
0.231833	0.0039901	-0.0296369
0.232	0.004064	-0.0291946
0.232167	0.00415879	-0.0288885
0.232333	0.00433289	-0.0286269
0.2325	0.00447647	-0.0283169
0.232667	0.00438055	-0.0279026
0.232833	0.004151	-0.0272831
0.233	0.00413613	-0.026306
0.233167	0.00445011	-0.0249146
0.233333	0.00480267	-0.0233507
0.2335	0.00500457	-0.0219246
0.233667	0.00504459	-0.0206767
0.233833	0.00463437	-0.0196496
0.234	0.0035271	-0.0191285
0.234167	0.00203723	-0.0192741
0.234333	0.000666826	-0.0198784
0.2345	-0.000375906	-0.0206548
0.234667	-0.00102055	-0.0214854
0.234833	-0.00130295	-0.022382
0.235	-0.00148358	-0.023298
0.235167	-0.00173152	-0.0240363
0.235333	-0.00198432	-0.0245279
0.2355	-0.00224446	-0.0247299
0.235667	-0.00272741	-0.0242518
0.235833	-0.00352898	-0.0228428
0.236	-0.00434178	-0.0208703
0.236167	-0.00475327	-0.018891
0.236333	-0.0045863	-0.017195
0.2365	-0.00400048	-0.0158048
0.236667	-0.00331568	-0.0146671
0.236833	-0.00261629	-0.0137521
0.237	-0.00184728	-0.0129983
0.237167	-0.00130377	-0.0123471
0.237333	-0.0014082	-0.0118264
0.2375	-0.00196268	-0.0114126
0.237667	-0.00250994	-0.0107331
0.237833	-0.00312506	-0.00923283
0.238	-0.00418783	-0.0066097
0.238167	-0.00601001	-0.00254561
0.238333	-0.00844863	0.00352573
0.2385	-0.0109151	0.012174
0.238667	-0.0133544	0.0240048
0.238833	-0.0161627	0.0393901
0.239	-0.0191598	0.0581846
0.239167	-0.0219022	0.080144
0.239333	-0.0244818	0.105035
0.2395	-0.0272461	0.132528
0.239667	-0.0301642	0.162435
0.239833	-0.032781	0.194386
0.24	-0.0347126	0.227362
0.240167	-0.0359759	0.260087
0.240333	-0.0367643	0.291106
0.2405	-0.0371849	0.31854
0.240667	-0.0371274	0.340612
0.240833	-0.036437	0.356095
0.241	-0.0352062	0.364134
0.241167	-0.0335805	0.364228
0.241333	-0.0317158	0.356456
0.2415	-0.0298721	0.341358
0.241667	-0.0281287	0.319699
0.241833	-0.0264487	0.292501
0.242	-0.0249934	0.261079
0.242167	-0.0240748	0.22709
0.242333	-0.0238194	0.192369
0.2425	-0.0239731	0.158462
0.242667	-0.0243031	0.126475
0.242833	-0.0247076	0.0972672
0.243	-0.0250292	0.0713902
0.243167	-0.0251431	0.0490051
0.243333	-0.0247715	0.0300017
0.2435	-0.0237752	0.0140809
0.243667	-0.0226911	0.000778375
0.243833	-0.0219749	-0.0103525
0.244	-0.0212642	-0.019558
0.244167	-0.0202095	-0.026961
0.244333	-0.0190987	-0.0326195
0.2445	-0.0181268	-0.0366494
0.244667	-0.0171751	-0.0394277
0.244833	-0.0163189	-0.0413701
0.245	-0.0157092	-0.0426326
0.245167	-0.0154597	-0.0431984
0.245333	-0.0156268	-0.0430329
0.2455	-0.0160476	-0.0422891
0.245667	-0.0166402	-0.0413751
0.245833	-0.0174119	-0.04045
0.246	-0.0180953	-0.039396
0.246167	-0.0183365	-0.0384664
0.246333	-0.0180539	-0.0381082
0.2465	-0.0174581	-0.0384148
0.246667	-0.0168442	-0.0392763
0.246833	-0.0164396	-0.0405103
0.247	-0.0162385	-0.0417737
0.247167	-0.0159021	-0.0427891
0.247333	-0.0152547	-0.0434779
0.2475	-0.0145212	-0.043804
0.247667	-0.0137668	-0.0437058
0.247833	-0.0129248	-0.0430798
0.248	-0.0122291	-0.0418592
0.248167	-0.0118792	-0.0402573
0.248333	-0.0116996	-0.038754
0.2485	-0.0114719	-0.0376921
0.248667	-0.0112501	-0.0370599
0.248833	-0.0111848	-0.036748
0.249	-0.0113782	-0.0368196
0.249167	-0.0120407	-0.0373767
0.249333	-0.0132022	-0.0382187
0.2495	-0.0144003	-0.0389675
0.249667	-0.0151212	-0.0394246
0.249833	-0.0151349	-0.0394865
0.25	-0.0146204	-0.039014
0.250167	-0.0140537	-0.037955
0.250333	-0.01364	-0.0364945
0.2505	-0.0132963	-0.034949
0.250667	-0.0130742	-0.0334732
0.250833	-0.0131686	-0.0321055
0.251	-0.0136238	-0.0309108
0.251167	-0.0142615	-0.0298066
0.251333	-0.0148671	-0.0286224
0.2515	-0.0152011	-0.0274697
0.251667	-0.0150706	-0.0265954
0.251833	-0.0146282	-0.0259881
0.252	-0.0141254	-0.0254293
0.252167	-0.0135999	-0.0246891
0.252333	-0.0132306	-0.0238062
0.2525	-0.013218	-0.0231233
0.252667	-0.0135332	-0.0227278
0.252833	-0.0142908	-0.0224012
0.253	-0.0156633	-0.0221267
0.253167	-0.0172772	-0.0219383
0.253333	-0.0183706	-0.0216793
0.2535	-0.0188035	-0.0212732
0.253667	-0.0190354	-0.0208667
0.253833	-0.0192423	-0.02056
0.254	-0.0192634	-0.0200662
0.254167	-0.0188939	-0.0190446
0.254333	-0.0180279	-0.0176502
0.2545	-0.0167536	-0.0162881
0.254667	-0.0153322	-0.0151173
0.254833	-0.0141695	-0.0140592
0.255	-0.013634	-0.0131092
0.255167	-0.0136846	-0.0124582
0.255333	-0.0138374	-0.0122105
0.2555	-0.0138657	-0.0119962
0.255667	-0.0141183	-0.0111954
0.255833	-0.0146049	-0.00970285
0.256	-0.0147672	-0.00808266
0.256167	-0.0145982	-0.00695205
0.256333	-0.0147451	-0.0064959
0.2565	-0.015279	-0.00656409
0.256667	-0.0156504	-0.00704887
0.256833	-0.0158387	-0.00787832
0.257	-0.0161029	-0.00887442
0.257167	-0.016229	-0.00990352
0.257333	-0.0160542	-0.0108221
0.2575	-0.0157128	-0.0113202
0.257667	-0.0151448	-0.0112144
0.257833	-0.0142809	-0.0107789
0.258	-0.0133949	-0.010406
0.258167	-0.0127313	-0.0102073
0.258333	-0.0124351	-0.0102896
0.2585	-0.0127846	-0.0108028
0.258667	-0.0137959	-0.0115083
0.258833	-0.0150216	-0.0119188
0.259	-0.0160289	-0.0118681
0.259167	-0.0166376	-0.0116667
0.259333	-0.0168437	-0.0116974
0.2595	-0.0167382	-0.0119113
0.259667	-0.0163923	-0.0119925
0.259833	-0.0159508	-0.011786
0.26	-0.0155568	-0.0113687
0.260167	-0.0152006	-0.0110459
0.260333	-0.0149646	-0.0110608
0.2605	-0.0148552	-0.0113157
0.260667	-0.0147133	-0.0114833
0.260833	-0.0146048	-0.010791
0.261	-0.0146614	-0.00778239
0.261167	-0.0149969	-0.000974434
0.261333	-0.0158031	0.0105241
0.2615	-0.0170057	0.0271162
0.261667	-0.0183598	0.0488964
0.261833	-0.0199291	0.0757476
0.262	-0.0220618	0.106973
0.262167	-0.0249791	0.140793
0.262333	-0.0282939	0.174676
0.2625	-0.0312541	0.206104
0.262667	-0.033504	0.233261
0.262833	-0.0350379	0.255149
0.263	-0.0357075	0.271152
0.263167	-0.0351929	0.281046
0.263333	-0.0335926	0.285352
0.2635	-0.0315225	0.285098
0.263667	-0.0294094	0.281068
0.263833	-0.027512	0.273593
0.264	-0.0262302	0.262756
0.264167	-0.0257464	0.248317
0.264333	-0.0258072	0.230073
0.2645	-0.0260591	0.208582
0.264667	-0.0263704	0.185001
0.264833	-0.0267684	0.160544
0.265	-0.0271838	0.136346
0.265167	-0.0273871	0.113153
0.265333	-0.0272664	0.0913224
0.2655	-0.026825	0.0714327
0.265667	-0.0260541	0.0541892
0.265833	-0.0251215	0.0398136
0.266	-0.024154	0.0280948
0.266167	-0.0230825	0.0185983
0.266333	-0.0219998	0.0106587
0.2665	-0.0210336	0.00373011
0.266667	-0.0201278	-0.00224477
0.266833	-0.019407	-0.00728741
0.267	-0.0192857	-0.0117745
0.267167	-0.0196935	-0.0160046
0.267333	-0.0196968	-0.019969
0.2675	-0.0188582	-0.0234446
0.267667	-0.0178842	-0.026162
0.267833	-0.0172325	-0.0281075
0.268	-0.016748	-0.0294814
0.268167	-0.0166608	-0.0304089
0.268333	-0.0173748	-0.0308347
0.2685	-0.0185514	-0.030782
0.268667	-0.0195992	-0.0305186
0.268833	-0.0205292	-0.0302638
0.269	-0.0215358	-0.0300411
0.269167	-0.0224616	-0.0299059
0.269333	-0.0231018	-0.0300583
0.2695	-0.023532	-0.0305852
0.269667	-0.0237562	-0.0312977
0.269833	-0.023585	-0.0319616
0.27	-0.0231987	-0.0324
0.270167	-0.0228953	-0.0324503
0.270333	-0.022596	-0.0322354
0.2705	-0.0221885	-0.0323028
0.270667	-0.0216279	-0.0329809
0.270833	-0.0209222	-0.033935
0.271	-0.0203028	-0.0346524
0.271167	-0.0199845	-0.0349089
0.271333	-0.0198482	-0.034733
0.2715	-0.0195759	-0.0341896
0.271667	-0.0191281	-0.033399
0.271833	-0.0188181	-0.0325135
0.272	-0.018744	-0.0315646
0.272167	-0.0186372	-0.0306329
0.272333	-0.018426	-0.0298914
0.2725	-0.0182874	-0.0294293
0.272667	-0.01809	-0.0292388
0.272833	-0.0176441	-0.0291703
0.273	-0.0171972	-0.0290324
0.273167	-0.0168713	-0.0289407
0.273333	-0.0164531	-0.0292046
0.2735	-0.0159909	-0.0298716
0.273667	-0.0156479	-0.0306577
0.273833	-0.0153538	-0.0312793
0.274	-0.0151576	-0.0317822
0.274167	-0.015285	-0.0322421
0.274333	-0.0157078	-0.0325334
0.2745	-0.0160716	-0.032736
0.274667	-0.0159883	-0.0329819
0.274833	-0.0155331	-0.033101
0.275	-0.0151272	-0.0331169
0.275167	-0.0147181	-0.0333535
0.275333	-0.0140212	-0.0337738
0.2755	-0.0131711	-0.0341189
0.275667	-0.0125362	-0.0344063
0.275833	-0.0123906	-0.0347318
0.276	-0.0127667	-0.0350739
0.276167	-0.0136432	-0.035197
0.276333	-0.0149051	-0.0346549
0.2765	-0.0160983	-0.0333803
0.276667	-0.0169002	-0.0318366
0.276833	-0.0173929	-0.0304893
0.277	-0.0175497	-0.0296521
0.277167	-0.0173192	-0.0294605
0.277333	-0.0170548	-0.029827
0.2775	-0.0170046	-0.0305343
0.277667	-0.0171692	-0.0312256
0.277833	-0.0176238	-0.0315079
0.278	-0.0182341	-0.0311374
0.278167	-0.0188584	-0.030182
0.278333	-0.0195641	-0.0290569
0.2785	-0.0202163	-0.028036
0.278667	-0.0205488	-0.0270964
0.278833	-0.0204413	-0.0263519
0.279	-0.0199193	-0.026013
0.279167	-0.019155	-0.0262372
0.279333	-0.0183212	-0.0269822
0.2795	-0.0174731	-0.0279095
0.279667	-0.0166226	-0.0287688
0.279833	-0.0156305	-0.0293685
0.28	-0.014229	-0.0294408
0.280167	-0.0125548	-0.0290344
0.280333	-0.0111836	-0.0284761
0.2805	-0.0103497	-0.0279144
0.280667	-0.00976794	-0.027322
0.280833	-0.00909438	-0.0268004
0.281	-0.00823216	-0.0265194
0.281167	-0.00739178	-0.0264581
0.281333	-0.00672483	-0.0265058
0.2815	-0.00613688	-0.0268465
0.281667	-0.00549361	-0.0278011
0.281833	-0.00478072	-0.0291831
0.282	-0.00422143	-0.0304892
0.282167	-0.00397104	-0.0315804
0.282333	-0.00377339	-0.0324705
0.2825	-0.00335577	-0.0329703
0.282667	-0.0027816	-0.0330387
0.282833	-0.00216542	-0.0328738
0.283	-0.00157792	-0.0326034
0.283167	-0.00112955	-0.0322317
0.283333	-0.000830951	-0.0317576
0.2835	-0.00068915	-0.0312804
0.283667	-0.000683813	-0.0309192
0.283833	-0.000607073	-0.0307411
0.284	-0.000312971	-0.0308235
0.284167	8.46438E-005	-0.0310846
0.284333	0.000424769	-0.0312617
0.2845	0.000749734	-0.0312419
0.284667	0.00117983	-0.0311098
0.284833	0.00163055	-0.03091
0.285	0.00190506	-0.0307014
0.285167	0.00214258	-0.0307305
0.285333	0.00271727	-0.0312286
0.2855	0.00364591	-0.0321895
0.285667	0.00470241	-0.0334192
0.285833	0.00580507	-0.034655
0.286	0.00676908	-0.0356974
0.286167	0.0071745	-0.0364033
0.286333	0.00682751	-0.0366223
0.2865	0.00592169	-0.0363458
0.286667	0.00460155	-0.0356636
0.286833	0.00285208	-0.034543
0.287	0.00101684	-0.03298
0.287167	-0.000186631	-0.0312528
0.287333	-0.000391843	-0.0298409
0.2875	0.00011478	-0.0288856
0.287667	0.000883991	-0.0279935
0.287833	0.0017782	-0.0268825
0.288	0.00269299	-0.0256775
0.288167	0.0033575	-0.0243988
0.288333	0.00366716	-0.02263
0.2885	0.00368761	-0.0198003
0.288667	0.00355771	-0.0153225
0.288833	0.00345828	-0.00831495
0.289	0.00323928	0.00219131
0.289167	0.00248928	0.0165856
0.289333	0.00116481	0.0345295
0.2895	-0.000666831	0.0554596
0.289667	-0.00352235	0.0790319
0.289833	-0.00800023	0.10509
0.29	-0.0140659	0.133351
0.290167	-0.0213305	0.163096
0.290333	-0.029277	0.193407
0.2905	-0.037194	0.223584
0.290667	-0.0443886	0.252904
0.290833	-0.0502969	0.280571
0.291	-0.0544338	0.305732
0.291167	-0.0565016	0.327046
0.291333	-0.0563227	0.342855
0.2915	-0.0536936	0.351867
0.291667	-0.0488404	0.353338
0.291833	-0.0426382	0.346992
0.292	-0.0359525	0.333012
0.292167	-0.0291813	0.312066
0.292333	-0.0225805	0.28538
0.2925	-0.0165335	0.254504
0.292667	-0.0113212	0.220853
0.292833	-0.00711195	0.185882
0.293	-0.00396993	0.151281
0.293167	-0.001587	0.118324
0.293333	0.000399636	0.0875848
0.2935	0.00169061	0.0594875
0.293667	0.00192917	0.0344651
0.293833	0.00178624	0.0128179
0.294	0.00202299	-0.00528128
0.294167	0.00255165	-0.0200617
0.294333	0.00326794	-0.032164
0.2945	0.00418185	-0.0421096
0.294667	0.00483652	-0.0500449
0.294833	0.00485558	-0.0560535
0.295	0.00455129	-0.0605706
0.295167	0.00444407	-0.0640502
0.295333	0.00464958	-0.0664808
0.2955	0.00498397	-0.0677859
0.295667	0.00538028	-0.0681848
0.295833	0.00579673	-0.0679582
0.296	0.00612522	-0.0674345
0.296167	0.00659767	-0.0670442
0.296333	0.00742482	-0.0669609
0.2965	0.00825363	-0.066983
0.296667	0.00882693	-0.0668074
0.296833	0.0093742	-0.0661944
0.297	0.010063	-0.0650987
0.297167	0.0108364	-0.0636713
0.297333	0.0117305	-0.0620476
0.2975	0.0126118	-0.0602509
0.297667	0.0131016	-0.0583281
0.297833	0.0132703	-0.0565831
0.298	0.0134157	-0.0554234
0.298167	0.0134915	-0.0550323
0.298333	0.0134982	-0.0553373
0.2985	0.0137359	-0.0560825
0.298667	0.0143722	-0.0570809
0.298833	0.0152009	-0.0582839
0.299	0.0159392	-0.0595523
0.299167	0.0163642	-0.0607606
0.299333	0.0163579	-0.0618885
0.2995	0.0160082	-0.06277
0.299667	0.0154234	-0.063245
0.299833	0.0147532	-0.0634151
0.3	0.0141557	-0.0633452
0.300167	0.0135853	-0.0629861
0.300333	0.0130965	-0.0624274
0.3005	0.0128832	-0.0618899
0.300667	0.0129801	-0.061593
0.300833	0.0133663	-0.0616581
0.301	0.0138579	-0.0621278
0.301167	0.0141019	-0.0629848
0.301333	0.0139039	-0.0640091
0.3015	0.0134077	-0.0648499
0.301667	0.013042	-0.0652543
0.301833	0.0130408	-0.0651992
0.302	0.0133223	-0.0649397
0.302167	0.0137259	-0.064668
0.302333	0.0140894	-0.0643858
0.3025	0.0145268	-0.0642176
0.302667	0.0152277	-0.0642279
0.302833	0.0159126	-0.0643151
0.303	0.0162625	-0.0645182
0.303167	0.0164431	-0.0648161
0.303333	0.0165802	-0.065022
0.3035	0.0165129	-0.0651893
0.303667	0.0161668	-0.0655206
0.303833	0.0155532	-0.0660469
0.304	0.0148296	-0.0666131
0.304167	0.0143203	-0.0669143
0.304333	0.0140875	-0.0667638
0.3045	0.0139772	-0.0662439
0.304667	0.0139603	-0.0654369
0.304833	0.0139312	-0.0644432
0.305	0.0137128	-0.0635444
0.305167	0.0134579	-0.0628584
0.305333	0.0134636	-0.0622107
0.3055	0.0138137	-0.0616089
0.305667	0.0144178	-0.0612566
0.305833	0.0151977	-0.0610987
0.306	0.0161562	-0.0607471
0.306167	0.0171463	-0.0599319
0.306333	0.0181076	-0.0590136
0.3065	0.0193656	-0.0584951
0.306667	0.0209701	-0.0582564
0.306833	0.0225515	-0.0580936
0.307	0.024034	-0.0582132
0.307167	0.0254443	-0.0587434
0.307333	0.0265173	-0.0595126
0.3075	0.0272019	-0.0602999
0.307667	0.0276805	-0.0609925
0.307833	0.0278599	-0.0615382
0.308	0.0276062	-0.0619335
0.308167	0.0270216	-0.0622375
0.308333	0.0260818	-0.0624032
0.3085	0.0247383	-0.0623445
0.308667	0.0233359	-0.0621771
0.308833	0.0222105	-0.0621496
0.309	0.0214146	-0.0624531
0.309167	0.0209857	-0.0630793
0.309333	0.0208513	-0.0637702
0.3095	0.0207754	-0.0642326
0.309667	0.0205533	-0.0644439
0.309833	0.0199794	-0.0645507
0.31	0.0189196	-0.0646003
0.310167	0.0175352	-0.0646216
0.310333	0.0161949	-0.064678
0.3105	0.0150946	-0.0647648
0.310667	0.0140897	-0.0648089
0.310833	0.0130059	-0.0646628
0.311	0.0119402	-0.0641918
0.311167	0.0111434	-0.0634462
0.311333	0.0107424	-0.0625783
0.3115	0.010658	-0.061579
0.311667	0.0108386	-0.0601774
0.311833	0.0113218	-0.0580481
0.312	0.0117702	-0.054943
0.312167	0.0116209	-0.0504073
0.312333	0.0109227	-0.0435779
0.3125	0.0101858	-0.0334789
0.312667	0.00964267	-0.0194099
0.312833	0.00912039	-0.0012468
0.313	0.00824892	0.0204608
0.313167	0.00669644	0.0450327
0.313333	0.00428647	0.0721704
0.3135	0.000968593	0.101581
0.313667	-0.00323498	0.132464
0.313833	-0.00822659	0.163729
0.314	-0.0136658	0.194216
0.314167	-0.0189245	0.222651
0.314333	-0.023406	0.247975
0.3145	-0.0268083	0.269418
0.314667	-0.0289451	0.286219
0.314833	-0.0296204	0.297782
0.315	-0.0288386	0.303958
0.315167	-0.0269276	0.305394
0.315333	-0.0243786	0.303563
0.3155	-0.0215455	0.300196
0.315667	-0.0187516	0.296568
0.315833	-0.0163974	0.293112
0.316	-0.0146675	0.289456
0.316167	-0.0134707	0.284581
0.316333	-0.0124424	0.277348
0.3165	-0.0111756	0.267038
0.316667	-0.00961258	0.253133
0.316833	-0.00784413	0.2352
0.317	-0.0058715	0.213436
0.317167	-0.00372414	0.188682
0.317333	-0.00153305	0.161744
0.3175	0.000583636	0.133142
0.317667	0.0027032	0.103504
0.317833	0.00496077	0.0738651
0.318	0.00719292	0.0453999
0.318167	0.00916817	0.0189565
0.318333	0.0109487	-0.00481992
0.3185	0.0123081	-0.0252886
0.318667	0.0126937	-0.0423655
0.318833	0.01224	-0.0565512
0.319	0.0113642	-0.0679578
0.319167	0.010098	-0.0762552
0.319333	0.00883022	-0.081561
0.3195	0.00805558	-0.0847306
0.319667	0.00764714	-0.0867168
0.319833	0.00746958	-0.0878704
0.32	0.00760144	-0.0881828
0.320167	0.00787211	-0.0878877
0.320333	0.0080691	-0.0873678
0.3205	0.00834397	-0.0868251
0.320667	0.00884283	-0.0862317
0.320833	0.00956171	-0.0854696
0.321	0.0107439	-0.0846911
0.321167	0.0123244	-0.0842283
0.321333	0.0138189	-0.0841889
0.3215	0.0150646	-0.0846142
0.321667	0.0160139	-0.0854505
0.321833	0.0164333	-0.0864464
0.322	0.0162709	-0.0875504
0.322167	0.0158096	-0.0888251
0.322333	0.0151692	-0.0900761
0.3225	0.0142325	-0.0910768
0.322667	0.0131933	-0.0916648
0.322833	0.0124415	-0.0915303
0.323	0.0121183	-0.0905082
0.323167	0.0122307	-0.0886679
0.323333	0.0127789	-0.0860831
0.3235	0.0135994	-0.0830875
0.323667	0.014553	-0.0801916
0.323833	0.0157606	-0.0776169
0.324	0.0171812	-0.0753323
0.324167	0.018422	-0.0733009
0.324333	0.0193006	-0.0715951
0.3245	0.019944	-0.0702903
0.324667	0.0205502	-0.0692309
0.324833	0.0213903	-0.0681935
0.325	0.0225151	-0.0671247
0.325167	0.0236158	-0.066085
0.325333	0.0244104	-0.0652516
0.3255	0.0249999	-0.0647767
0.325667	0.0255883	-0.064521
0.325833	0.0259939	-0.0643589
0.326	0.0260597	-0.0646253
0.326167	0.0260616	-0.0655803
0.326333	0.0262308	-0.0669002
0.3265	0.0265366	-0.0683235
0.326667	0.0269728	-0.0699685
0.326833	0.0276231	-0.0718319
0.327	0.028622	-0.0736857
0.327167	0.0300891	-0.0752924
0.327333	0.0319959	-0.0764952
0.3275	0.0341358	-0.0772749
0.327667	0.0360509	-0.0776594
0.327833	0.0373127	-0.0776491
0.328	0.0381276	-0.0772824
0.328167	0.0390808	-0.0767105
0.328333	0.0402177	-0.0762612
0.3285	0.0410991	-0.076325
0.328667	0.041703	-0.0771602
0.328833	0.0423624	-0.0786681
0.329	0.043035	-0.0803086
0.329167	0.0434475	-0.0815284
0.329333	0.0435743	-0.0821783
0.3295	0.0436609	-0.0823369
0.329667	0.0440396	-0.0819163
0.329833	0.044802	-0.0807047
0.33	0.0456634	-0.0786908
0.330167	0.0463719	-0.0762629
0.330333	0.0471156	-0.074169
0.3305	0.0481713	-0.0730214
0.330667	0.0493118	-0.0728793
0.330833	0.0501943	-0.0734424
0.331	0.0508528	-0.0744372
0.331167	0.0512779	-0.0757574
0.331333	0.0514089	-0.0773643
0.3315	0.0515123	-0.0791914
0.331667	0.051694	-0.0810129
0.331833	0.0515926	-0.0824822
0.332	0.0510358	-0.0835219
0.332167	0.0502378	-0.0842883
0.332333	0.0494473	-0.0848302
0.3325	0.048811	-0.085209
0.332667	0.0483307	-0.0855265
0.332833	0.0480137	-0.0856748
0.333	0.0480474	-0.0854331
0.333167	0.0485485	-0.0847584
0.333333	0.0492661	-0.0838542
0.3335	0.0499731	-0.082955
0.333667	0.0506961	-0.0821068
0.333833	0.0512672	-0.081292
0.334	0.0514865	-0.0807235
0.334167	0.0515913	-0.0806465
0.334333	0.0519452	-0.0808604
0.3345	0.0526511	-0.0810414
0.334667	0.0535628	-0.0812541
0.334833	0.0544352	-0.0815621
0.335	0.0550713	-0.0816367
0.335167	0.0553271	-0.0810776
0.335333	0.0552326	-0.0798874
0.3355	0.0549762	-0.0784493
0.335667	0.0545753	-0.0770352
0.335833	0.0540097	-0.0756888
0.336	0.0534024	-0.0745491
0.336167	0.052768	-0.0738481
0.336333	0.0521121	-0.0736747
0.3365	0.0516361	-0.0739087
0.336667	0.0515648	-0.074373
0.336833	0.0520654	-0.0749231
0.337	0.0531806	-0.0753554
0.337167	0.0546921	-0.0754873
0.337333	0.0562691	-0.0753303
0.3375	0.0575959	-0.0751293
0.337667	0.0584289	-0.0751614
0.337833	0.058627	-0.0754813
0.338	0.0581262	-0.0760459
0.338167	0.0571378	-0.0768754
0.338333	0.0560938	-0.0778631
0.3385	0.0551839	-0.0788179
0.338667	0.0543104	-0.0798526
0.338833	0.0535059	-0.0810822
0.339	0.0529881	-0.0822093
0.339167	0.0528918	-0.0829963
0.339333	0.0532391	-0.0833977
0.3395	0.05399	-0.0832745
0.339667	0.0549946	-0.0826347
0.339833	0.0560567	-0.0816476
0.34	0.0568313	-0.08018
0.340167	0.0569732	-0.0779277
0.340333	0.0567838	-0.0749056
0.3405	0.0566974	-0.0711975
0.340667	0.0564511	-0.0664464
0.340833	0.0557114	-0.0598208
0.341	0.0545799	-0.0502943
0.341167	0.0532758	-0.0371109
0.341333	0.0517328	-0.0199938
0.3415	0.0493087	0.00107807
0.341667	0.0453559	0.0260394
0.341833	0.0401765	0.0547749
0.342	0.0346816	0.0872384
0.342167	0.029389	0.12315
0.342333	0.0242653	0.161134
0.3425	0.0191221	0.198939
0.342667	0.0139321	0.234624
0.342833	0.00879814	0.26681
0.343	0.003708	0.294437
0.343167	-0.00140479	0.316744
0.343333	-0.00640945	0.333417
0.3435	-0.0111021	0.344759
0.343667	-0.0154628	0.351402
0.343833	-0.0193584	0.354143
0.344	-0.0223302	0.354161
0.344167	-0.0240603	0.35283
0.344333	-0.0244259	0.351189
0.3445	-0.023256	0.349541
0.344667	-0.0206069	0.347427
0.344833	-0.0166704	0.34397
0.345	-0.0114645	0.338128
0.345167	-0.00520087	0.328921
0.345333	0.00137278	0.315808
0.3455	0.00743332	0.29862
0.345667	0.0126534	0.277368
0.345833	0.0168846	0.252489
0.346	0.0197678	0.224844
0.346167	0.0212484	0.195304
0.346333	0.0220294	0.164649
0.3465	0.0229118	0.133859
0.346667	0.023868	0.104328
0.346833	0.0244209	0.0772974
0.347	0.0248056	0.0531584
0.347167	0.0257073	0.0318815
0.347333	0.0271194	0.0134201
0.3475	0.0286227	-0.00250671
0.347667	0.0299475	-0.0161904
0.347833	0.0307631	-0.0276981
0.348	0.0310275	-0.0370389
0.348167	0.0312296	-0.0443318
0.348333	0.0317555	-0.0499032
0.3485	0.0325572	-0.0542049
0.348667	0.0333059	-0.0575736
0.348833	0.0337275	-0.0601469
0.349	0.0339423	-0.0620033
0.349167	0.0340991	-0.0632816
0.349333	0.0341939	-0.0640802
0.3495	0.0343516	-0.0644949
0.349667	0.0344695	-0.0647587
0.349833	0.0342645	-0.064929
0.35	0.0338075	-0.0649155
0.350167	0.0332072	-0.064877
0.350333	0.0325265	-0.0650585
0.3505	0.0321799	-0.0654953
0.350667	0.0324063	-0.0660115
0.350833	0.0328533	-0.0664945
0.351	0.0331668	-0.0670459
0.351167	0.0332654	-0.0676951
0.351333	0.0330405	-0.068177
0.3515	0.0323013	-0.0681514
0.351667	0.031016	-0.0676123
0.351833	0.0293365	-0.0669834
0.352	0.0275514	-0.0666171
0.352167	0.0260382	-0.0663873
0.352333	0.0248515	-0.0659754
0.3525	0.0238898	-0.065149
0.352667	0.0234378	-0.0639392
0.352833	0.0237227	-0.0626665
0.353	0.0244574	-0.0614741
0.353167	0.0253113	-0.0604351
0.353333	0.0262832	-0.0597619
0.3535	0.0273386	-0.0594263
0.353667	0.0282708	-0.0593464
0.353833	0.0289265	-0.0595963
0.354	0.029101	-0.0601664
0.354167	0.0287322	-0.0607672
0.354333	0.0281672	-0.0605918
0.3545	0.0278895	-0.0589828
0.354667	0.0281799	-0.0560748
0.354833	0.0289952	-0.0520098
0.355	0.0302532	-0.0469287
0.355167	0.0320557	-0.0410954
0.355333	0.0344671	-0.0345006
0.3555	0.0371611	-0.0277083
0.355667	0.0396176	-0.0216351
0.355833	0.0417122	-0.0164682
0.356	0.04367	-0.0115742
0.356167	0.0457812	-0.00641504
0.356333	0.0480541	-0.00200272
0.3565	0.05015	0.0001114
0.356667	0.0520988	-0.000686827
0.356833	0.0542013	-0.00464923
0.357	0.0563745	-0.0120386
0.357167	0.0584367	-0.0230791
0.357333	0.0602499	-0.0374619
0.3575	0.0616167	-0.0542975
0.357667	0.062514	-0.0728002
0.357833	0.0627439	-0.0921602
0.358	0.0619144	-0.111514
0.358167	0.0601902	-0.129904
0.358333	0.0581289	-0.146449
0.3585	0.0559556	-0.161328
0.358667	0.0533703	-0.175218
0.358833	0.0498826	-0.187977
0.359	0.0453672	-0.198992
0.359167	0.0402795	-0.208353
0.359333	0.0353868	-0.21701
0.3595	0.0313308	-0.225986
0.359667	0.0280821	-0.235541
0.359833	0.0251709	-0.245284
0.36	0.0228815	-0.255417
0.360167	0.0218551	-0.265926
0.360333	0.0219049	-0.275174
0.3605	0.0225736	-0.281438
0.360667	0.0236468	-0.283892
0.360833	0.0248746	-0.282611
0.361	0.0260419	-0.279709
0.361167	0.0268803	-0.277799
0.361333	0.026846	-0.276725
0.3615	0.0255806	-0.275172
0.361667	0.0234006	-0.273412
0.361833	0.020846	-0.272095
0.362	0.0181889	-0.270856
0.362167	0.0159124	-0.269067
0.362333	0.0148412	-0.266537
0.3625	0.0153094	-0.262698
0.362667	0.0167762	-0.255724
0.362833	0.018361	-0.243592
0.363	0.0196798	-0.226135
0.363167	0.0209794	-0.205502
0.363333	0.0223768	-0.185003
0.3635	0.0236327	-0.167501
0.363667	0.0245745	-0.153748
0.363833	0.0250552	-0.143187
0.364	0.024932	-0.136256
0.364167	0.0243395	-0.133337
0.364333	0.0236897	-0.133208
0.3645	0.0232638	-0.134388
0.364667	0.0229053	-0.136073
0.364833	0.0224105	-0.137825
0.365	0.0218618	-0.139264
0.365167	0.0212125	-0.140179
0.365333	0.0202258	-0.140604
0.3655	0.0191389	-0.140534
0.365667	0.0185285	-0.139986
0.365833	0.0183464	-0.138998
0.366	0.0178712	-0.137557
0.366167	0.0168111	-0.135609
0.366333	0.0156757	-0.132708
0.3665	0.014773	-0.128198
0.366667	0.0138471	-0.121951
0.366833	0.0128028	-0.114363
0.367	0.0117972	-0.106034
0.367167	0.0108849	-0.0975802
0.367333	0.0100567	-0.0892783
0.3675	0.00929382	-0.0812747
0.367667	0.00843797	-0.0737991
0.367833	0.00743805	-0.0669193
0.368	0.00663442	-0.0607168
0.368167	0.00608866	-0.055349
0.368333	0.00542729	-0.0506411
0.3685	0.00456716	-0.0464528
0.368667	-0.0195312	0.430298
0.368833	-0.0194761	0.429795
0.369	-0.019151	0.427785
0.369167	-0.0183417	0.423854
0.369333	-0.0170113	0.418118
0.3695	-0.015196	0.410632
0.369667	-0.0130992	0.401453
0.369833	-0.0110577	0.390413
0.37	-0.00930145	0.377215
0.370167	-0.00780182	0.361597
0.370333	-0.00623176	0.343194
0.3705	-0.00448523	0.322099
0.370667	-0.00287004	0.298741
0.370833	-0.00161591	0.273154
0.371	-0.000645042	0.245712
0.371167	0.000464542	0.217476
0.371333	0.0020949	0.189136
0.3715	0.0041918	0.161155
0.371667	0.00673816	0.134567
0.371833	0.00991978	0.110157
0.372	0.0134126	0.0879944
0.372167	0.0163279	0.0684043
0.372333	0.0183813	0.0519764
0.3725	0.0203176	0.038522
0.372667	0.0226362	0.0270076
0.372833	0.0251669	0.0168102
0.373	0.0277283	0.00838691
0.373167	0.0299199	0.00219484
0.373333	0.0312753	-0.00238764
0.3735	0.0319121	-0.00625005
0.373667	0.0321778	-0.00929751
0.373833	0.0323435	-0.0109034
0.374	0.0329589	-0.0111738
0.374167	0.0344138	-0.0109031
0.374333	0.036278	-0.0105094
0.3745	0.0380527	-0.0100502
0.374667	0.0396887	-0.00970823
0.374833	0.0410185	-0.00959162
0.375	0.0419287	-0.00984952
0.375167	0.0426009	-0.0108233
0.375333	0.04295	-0.0124415
0.3755	0.0426532	-0.0142204
0.375667	0.0416596	-0.0161372
0.375833	0.0401825	-0.018252
0.376	0.0385446	-0.0201338
0.376167	0.0370272	-0.0216478
0.376333	0.0357885	-0.0230676
0.3765	0.0349875	-0.0243989
0.376667	0.0347582	-0.0252907
0.376833	0.035245	-0.0254244
0.377	0.036348	-0.024951
0.377167	0.0376412	-0.0243223
0.377333	0.0389892	-0.0236875
0.3775	0.0404786	-0.0227443
0.377667	0.0417796	-0.0209619
0.377833	0.042598	-0.0181718
0.378	0.0435313	-0.0153333
0.378167	0.0451438	-0.0137031
0.378333	0.0470744	-0.0131749
0.3785	0.0488763	-0.0128258
0.378667	0.0503835	-0.0124541
0.378833	0.0515009	-0.0124043
0.379	0.0522173	-0.0126875
0.379167	0.0525516	-0.0130818
0.379333	0.0526262	-0.0134911
0.3795	0.0525038	-0.0138098
0.379667	0.0522893	-0.0140203
0.379833	0.0524989	-0.014408
0.38	0.053319	-0.0151908
0.380167	0.0541094	-0.0161885
0.380333	0.0543452	-0.0171092
0.3805	0.05428	-0.0178574
0.380667	0.054505	-0.0186555
0.380833	0.0552659	-0.0198813
0.381	0.0561989	-0.0216198
0.381167	0.0566464	-0.023615
0.381333	0.0563972	-0.0254613
0.3815	0.0558439	-0.0268738
0.381667	0.0552626	-0.0278333
0.381833	0.0546242	-0.0283211
0.382	0.053982	-0.0284303
0.382167	0.0534381	-0.0285087
0.382333	0.05305	-0.0287265
0.3825	0.0528418	-0.0289855
0.382667	0.0528947	-0.0292073
0.382833	0.0534415	-0.0293751
0.383	0.054439	-0.0293661
0.383167	0.0554247	-0.0289135
0.383333	0.0560172	-0.0282802
0.3835	0.0562364	-0.0283357
0.383667	0.0564193	-0.0292575
0.383833	0.0567297	-0.0302625
0.384	0.0570662	-0.0305904
0.384167	0.0574047	-0.0302371
0.384333	0.0576254	-0.0299656
0.3845	0.057716	-0.0303201
0.384667	0.058102	-0.031029
0.384833	0.0588304	-0.0315958
0.385	0.0593888	-0.0319156
0.385167	0.0596769	-0.0323087
0.385333	0.0599401	-0.0329501
0.3855	0.0602459	-0.0335889
0.385667	0.0607322	-0.0338867
0.385833	0.0614545	-0.0337396
0.386	0.0621169	-0.0335151
0.386167	0.0624058	-0.0335901
0.386333	0.0620949	-0.0338203
0.3865	0.0612342	-0.0340826
0.386667	0.060366	-0.034657
0.386833	0.0598139	-0.0357164
0.387	0.0592454	-0.0369465
0.387167	0.0585097	-0.0379789
0.387333	0.0579528	-0.0388996
0.3875	0.0576961	-0.0398954
0.387667	0.0576159	-0.0409635
0.387833	0.0577901	-0.0419126
0.388	0.0582912	-0.0421268
0.388167	0.0589984	-0.0412948
0.388333	0.0599037	-0.040012
0.3885	0.0610715	-0.0387146
0.388667	0.062363	-0.0372486
0.388833	0.063722	-0.0355043
0.389	0.0651499	-0.0334027
0.389167	0.0664031	-0.0307201
0.389333	0.0674866	-0.0270835
0.3895	0.0686805	-0.0218586
0.389667	0.0698249	-0.014331
0.389833	0.0705391	-0.0041357
0.39	0.0708037	0.00878397
0.390167	0.0706299	0.024607
0.390333	0.069907	0.0436625
0.3905	0.0687614	0.0659875
0.390667	0.0671487	0.0912145
0.390833	0.0646488	0.119016
0.391	0.0611925	0.149004
0.391167	0.057094	0.180279
0.391333	0.0524778	0.211724
0.3915	0.0474285	0.242491
0.391667	0.0426235	0.271947
0.391833	0.038784	0.29947
0.392	0.0358783	0.324443
0.392167	0.0340684	0.346424
0.392333	0.0338666	0.365469
0.3925	0.0350616	0.381953
0.392667	0.0370687	0.395789
0.392833	0.0397847	0.40603
0.393	0.0432275	0.411704
0.393167	0.0469945	0.412657
0.393333	0.0507834	0.408905
0.3935	0.0546007	0.400226
0.393667	0.058111	0.386859
0.393833	0.0607504	0.36953
0.394	0.062472	0.348602
0.394167	0.0638407	0.324142
0.394333	0.0654307	0.296905
0.3945	0.0670534	0.268347
0.394667	0.0682848	0.239391
0.394833	0.0694237	0.210055
0.395	0.0706202	0.180895
0.395167	0.0716226	0.153221
0.395333	0.0723527	0.12794
0.3955	0.072782	0.105501
0.395667	0.0733456	0.0859077
0.395833	0.0744035	0.0688195
0.396	0.0754545	0.0540423
0.396167	0.0759753	0.0414501
0.396333	0.0759426	0.03067
0.3965	0.0757047	0.0211152
0.396667	0.0755934	0.0126111
0.396833	0.0755108	0.0055988
0.397	0.0753186	0.000449776
0.397167	0.0749427	-0.00290685
0.397333	0.0740747	-0.00506498
0.3975	0.0726483	-0.00690629
0.397667	0.0710397	-0.00867843
0.397833	0.0695414	-0.00987774
0.398	0.0681241	-0.0101292
0.398167	0.0667008	-0.00953188
0.398333	0.0656087	-0.00845054
0.3985	0.0653867	-0.0073479
0.398667	0.0660654	-0.00655919
0.398833	0.0671813	-0.00594323
0.399	0.0683287	-0.00516272
0.399167	0.069545	-0.00437615
0.399333	0.0711185	-0.00401048
0.3995	0.0728988	-0.00420151
0.399667	0.074252	-0.00474036
0.399833	0.0750632	-0.00537316
0.4	0.0757803	-0.00622376
0.400167	0.0764592	-0.00730507
0.400333	0.0768201	-0.00804908
0.4005	0.0766047	-0.00819833
0.400667	0.0758042	-0.00797254
0.400833	0.0748399	-0.00740181
0.401	0.0740319	-0.00676602
0.401167	0.0733154	-0.00661763
0.401333	0.0725497	-0.00683664
0.4015	0.0715137	-0.0068753
0.401667	0.0699891	-0.0067768
0.401833	0.0682125	-0.00695374
0.402	0.0666375	-0.00732986
0.402167	0.0654348	-0.00757061
0.402333	0.0646839	-0.00760103
0.4025	0.0644364	-0.00743895
0.402667	0.0644579	-0.00705613
0.402833	0.0645338	-0.00651958
0.403	0.0648837	-0.00603176
0.403167	0.0656141	-0.00573693
0.403333	0.0662417	-0.00558956
0.4035	0.0665569	-0.00545667
0.403667	0.0670448	-0.00525792
0.403833	0.0678678	-0.00495937
0.404	0.0686986	-0.00460854
0.404167	0.06948	-0.00433204
0.404333	0.0702588	-0.00414993
0.4045	0.0708385	-0.00400621
0.404667	0.0711767	-0.00385576
0.404833	0.0714552	-0.00343115
0.405	0.0714649	-0.00228259
0.405167	0.0709335	-0.00059655
0.405333	0.0702573	0.000771663
0.4055	0.0698305	0.00155035
0.405667	0.0694938	0.00209066
0.405833	0.069009	0.00245921
0.406	0.0685417	0.00265736
0.406167	0.0683683	0.00287128
0.406333	0.0682074	0.00301071
0.4065	0.0678038	0.00279085
0.406667	0.0674487	0.00241341
0.406833	0.0672328	0.00240036
0.407	0.0669091	0.00274464
0.407167	0.0663828	0.00318009
0.407333	0.0657935	0.00389644
0.4075	0.0651558	0.00519504
0.407667	0.0641892	0.00691596
0.407833	0.0628868	0.00867752
0.408	0.0616026	0.0104095
0.408167	0.0603657	0.0122468
0.408333	0.0590378	0.0138999
0.4085	0.0576971	0.0149712
0.408667	0.0562474	0.0157855
0.408833	0.0546298	0.0165964
0.409	0.0533102	0.016868
0.409167	0.0526003	0.0163061
0.409333	0.0519891	0.015402
0.4095	0.0507794	0.0145288
0.409667	0.0490072	0.0135187
0.409833	0.0471882	0.0123611
0.41	0.045467	0.0112815
0.410167	0.0436526	0.0102283
0.410333	0.0416729	0.00900709
0.4105	0.0396359	0.00750034
0.410667	0.0378544	0.00574155
0.410833	0.0365516	0.00410337
0.411	0.0355623	0.00308476
0.411167	0.0346269	0.00290078
0.411333	0.0335375	0.00345071
0.4115	0.0322346	0.00456807
0.411667	0.0309609	0.00605151
0.411833	0.0299797	0.00763217
0.412	0.0293692	0.00927077
0.412167	0.0291189	0.0109681
0.412333	0.029224	0.0123707
0.4125	0.029714	0.0132631
0.412667	0.0306566	0.0138671
0.412833	0.0319793	0.0143294
0.413	0.0332372	0.014529
0.413167	0.0339664	0.0142804
0.413333	0.0340038	0.0136174
0.4135	0.0333064	0.0130053
0.413667	0.0320345	0.0128919
0.413833	0.0305945	0.013187
0.414	0.0293951	0.0134569
0.414167	0.0287529	0.0134561
0.414333	0.0287524	0.013349
0.4145	0.0291207	0.0133419
0.414667	0.0295733	0.0133932
0.414833	0.0301416	0.0133799
0.415	0.0308857	0.0131362
0.415167	0.0318419	0.0124272
0.415333	0.0330965	0.0112439
0.4155	0.0343375	0.0100414
0.415667	0.0349613	0.0094933
0.415833	0.0348756	0.00974588
0.416	0.0345809	0.010124
0.416167	0.0342372	0.0100128
0.416333	0.0335156	0.00944977
0.4165	0.0324627	0.00857472
0.416667	0.0314842	0.00739214
0.416833	0.0306073	0.00629733
0.417	0.0295291	0.00580029
0.417167	0.028341	0.0057204
0.417333	0.0274413	0.0057122
0.4175	0.0269337	0.00586708
0.417667	0.0266754	0.00624894
0.417833	0.0264997	0.00675794
0.418	0.0262747	0.00722179
0.418167	0.0260238	0.00726395
0.418333	0.0259113	0.0066523
0.4185	0.0259028	0.00574405
0.418667	0.0256858	0.00489627
0.418833	0.0250951	0.00398991
0.419	0.0243674	0.00302685
0.419167	0.0238555	0.00231317
0.419333	0.0235659	0.0021661
0.4195	0.0233135	0.00263936
0.419667	0.0232768	0.0033621
0.419833	0.0237798	0.00399067
0.42	0.0246804	0.00447157
0.420167	0.0255062	0.00483752
0.420333	0.0259358	0.00532713
0.4205	0.0260155	0.00631637
0.420667	0.0260422	0.0081104
0.420833	0.0262472	0.0115512
0.421	0.026593	0.0184133
0.421167	0.0268543	0.0306628
0.421333	0.0267216	0.0499493
0.4215	0.0256054	0.0777091
0.421667	0.0229123	0.114747
0.421833	0.0186214	0.160446
0.422	0.0131603	0.212289
0.422167	0.00718507	0.266022
0.422333	0.00143987	0.316454
0.4225	-0.00351245	0.35853
0.422667	-0.00717847	0.388594
0.422833	-0.00911834	0.40509
0.423	-0.00916412	0.407992
0.423167	-0.00737864	0.398217
0.423333	-0.00404125	0.377836
0.4235	0.000354246	0.349662
0.423667	0.0051549	0.31629
0.423833	0.00977457	0.279942
0.424	0.0139132	0.242687
0.424167	0.0172883	0.206275
0.424333	0.0195533	0.171801
0.4245	0.0207651	0.139986
0.424667	0.0214002	0.111653
0.424833	0.021927	0.0873762
0.425	0.022624	0.067068
0.425167	0.0233435	0.05044
0.425333	0.0235722	0.0372566
0.4255	0.0233023	0.0271085
0.425667	0.0232737	0.0192256
0.425833	0.0238618	0.0126933
0.426	0.0249084	0.00730049
0.426167	0.0264164	0.00329852
0.426333	0.0280622	0.000405759
0.4265	0.029033	-0.00197228
0.426667	0.0291007	-0.00402533
0.426833	0.0287676	-0.00562535
0.427	0.0283023	-0.00687986
0.427167	0.0276181	-0.00803878
0.427333	0.0267931	-0.00911684
0.4275	0.0260056	-0.00995226
0.427667	0.0251214	-0.0104363
0.427833	0.0237927	-0.0105212
0.428	0.0221203	-0.0102575
0.428167	0.0206559	-0.00990183
0.428333	0.0195283	-0.00988955
0.4285	0.0185051	-0.0105643
0.428667	0.0176434	-0.0116989
0.428833	0.0169665	-0.0128903
0.429	0.0165056	-0.0140775
0.429167	0.016686	-0.015234
0.429333	0.017447	-0.0163884
0.4295	0.018176	-0.0177182
0.429667	0.0187156	-0.019066
0.429833	0.0190107	-0.020029
0.43	0.0189905	-0.0207966
0.430167	0.0188249	-0.0217695
0.430333	0.0185732	-0.0227161
0.4305	0.0183845	-0.0233432
0.430667	0.0185456	-0.0238742
0.430833	0.0191265	-0.0246382
0.431	0.0199422	-0.0254778
0.431167	0.0209103	-0.0259553
0.431333	0.0220762	-0.0259232
0.4315	0.0229626	-0.0254934
0.431667	0.0227406	-0.0247694
0.431833	0.0216418	-0.0237679
0.432	0.0208717	-0.0227362
0.432167	0.0207237	-0.0221726
0.432333	0.0208517	-0.0222671
0.4325	0.0213916	-0.0228372
0.432667	0.0222625	-0.023642
0.432833	0.0231042	-0.0245021
0.433	0.0238718	-0.025445
0.433167	0.0245976	-0.0265675
0.433333	0.0252261	-0.0276905
0.4335	0.0257477	-0.0287481
0.433667	0.0260671	-0.0298872
0.433833	0.0260962	-0.0309073
0.434	0.0259675	-0.031518
0.434167	0.0258888	-0.0316699
0.434333	0.0261244	-0.0315461
0.4345	0.0268	-0.0316047
0.434667	0.0276607	-0.0320575
0.434833	0.0284421	-0.0326164
0.435	0.029018	-0.0330269
0.435167	0.0292504	-0.0333705
0.435333	0.0292254	-0.0338091
0.4355	0.0291968	-0.0341323
0.435667	0.02926	-0.0340432
0.435833	0.0294812	-0.0339234
0.436	0.0298351	-0.0341736
0.436167	0.0301474	-0.0344571
0.436333	0.0305369	-0.0346841
0.4365	0.0312018	-0.0352427
0.436667	0.0319717	-0.0359874
0.436833	0.0327347	-0.036473
0.437	0.033573	-0.036735
0.437167	0.0342267	-0.0368755
0.437333	0.0343296	-0.0366633
0.4375	0.0340526	-0.0359844
0.437667	0.0337871	-0.0350057
0.437833	0.0336607	-0.033895
0.438	0.0338358	-0.0328684
0.438167	0.0345211	-0.0324441
0.438333	0.0354603	-0.0329672
0.4385	0.0362417	-0.0341049
0.438667	0.0366936	-0.0354166
0.438833	0.0368059	-0.036753
0.439	0.036998	-0.0381571
0.439167	0.0376057	-0.0395777
0.439333	0.0382166	-0.0406312
0.4395	0.0383577	-0.0412176
0.439667	0.0379838	-0.0416289
0.439833	0.0372362	-0.0420727
0.44	0.036499	-0.0427099
0.440167	0.0362382	-0.0435365
0.440333	0.0363531	-0.0443569
0.4405	0.0363379	-0.0450706
0.440667	0.0359587	-0.0456646
0.440833	0.0353029	-0.0462384
0.441	0.0346267	-0.0469432
0.441167	0.034059	-0.0474669
0.441333	0.0335147	-0.0474218
0.4415	0.0331945	-0.047181
0.441667	0.0334667	-0.0473795
0.441833	0.0342562	-0.0481197
0.442	0.0352774	-0.0489515
0.442167	0.0365672	-0.0493893
0.442333	0.0382139	-0.0493553
0.4425	0.040049	-0.0491134
0.442667	0.0418699	-0.0490702
0.442833	0.0434862	-0.0494827
0.443	0.0447803	-0.0502156
0.443167	0.0458312	-0.050948
0.443333	0.0466907	-0.0515661
0.4435	0.0472604	-0.0521409
0.443667	0.0475801	-0.0527276
0.443833	0.048008	-0.0534648
0.444	0.0488998	-0.0543618
0.444167	0.0502628	-0.0551851
0.444333	0.0517815	-0.0559317
0.4445	0.0530883	-0.0566796
0.444667	0.0539886	-0.0572394
0.444833	0.0545007	-0.0575233
0.445	0.0548148	-0.0576076
0.445167	0.0551297	-0.0575079
0.445333	0.0554507	-0.0573412
0.4455	0.0556332	-0.0573656
0.445667	0.0556754	-0.0576331
0.445833	0.0557286	-0.0579002
0.446	0.0558458	-0.0580721
0.446167	0.0561478	-0.0582855
0.446333	0.0566912	-0.0585513
0.4465	0.0571251	-0.0587435
0.446667	0.0572088	-0.058818
0.446833	0.0569998	-0.0588294
0.447	0.0565587	-0.0588362
0.447167	0.0560655	-0.0589313
0.447333	0.0557806	-0.0591307
0.4475	0.0558301	-0.0591787
0.447667	0.0562125	-0.0589663
0.447833	0.0570106	-0.0588738
0.448	0.0583912	-0.059178
0.448167	0.0601448	-0.0596449
0.448333	0.0616412	-0.0599579
0.4485	0.0625461	-0.0601165
0.448667	0.0631275	-0.0601817
0.448833	0.0637553	-0.0600959
0.449	0.064497	-0.0600796
0.449167	0.0653136	-0.0605014
0.449333	0.066272	-0.0613479
0.4495	0.0673546	-0.0624479
0.449667	0.0683625	-0.0638366
0.449833	0.0691802	-0.0655809
0.45	0.0698777	-0.0675478
0.450167	0.0704727	-0.069475
0.450333	0.0709052	-0.0710503
0.4505	0.0711496	-0.0719854
0.450667	0.0712906	-0.0724041
0.450833	0.0715255	-0.0726848
0.451	0.071857	-0.072885
0.451167	0.0720092	-0.0730299
0.451333	0.0718259	-0.0732318
0.4515	0.0714667	-0.0732518
0.451667	0.0710234	-0.0728593
0.451833	0.0704026	-0.0723074
0.452	0.0696626	-0.0718631
0.452167	0.0687524	-0.0714438
0.452333	0.0674874	-0.0709026
0.4525	0.0660598	-0.0697751
0.452667	0.0648326	-0.06683
0.452833	0.0639918	-0.0604186
0.453	0.0634357	-0.0489712
0.453167	0.0627882	-0.0313465
0.453333	0.0618092	-0.00690443
0.4535	0.0605982	0.0243958
0.453667	0.0593726	0.0615206
0.453833	0.0582421	0.102536
0.454	0.0571592	0.145284
0.454167	0.0562368	0.187252
0.454333	0.0557058	0.224909
0.4545	0.0552664	0.254403
0.454667	0.0546696	0.273376
0.454833	0.0545899	0.281209
0.455	0.0554488	0.278278
0.455167	0.0566935	0.265775
0.455333	0.0579814	0.245299
0.4555	0.0594634	0.21861
0.455667	0.0610364	0.187996
0.455833	0.0625845	0.155817
0.456	0.064556	0.123546
0.456167	0.0674068	0.0920858
0.456333	0.0708682	0.0624966
0.4565	0.0742962	0.0360489
0.456667	0.0772618	0.0135565
0.456833	0.0797355	-0.00552393
0.457	0.0819893	-0.0221093
0.457167	0.0841907	-0.036032
0.457333	0.0861142	-0.0468528
0.4575	0.0873556	-0.0548641
0.457667	0.0880537	-0.0605098
0.457833	0.0889971	-0.0639826
0.458	0.0906408	-0.0660098
0.458167	0.0926079	-0.0677131
0.458333	0.0942381	-0.0694212
0.4585	0.0953866	-0.0708971
0.458667	0.0964771	-0.0722526
0.458833	0.0978227	-0.0738204
0.459	0.0991074	-0.0755578
0.459167	0.0998086	-0.0771846
0.459333	0.100196	-0.0785241
0.4595	0.100933	-0.0793388
0.459667	0.101853	-0.0793961
0.459833	0.102467	-0.0786749
0.46	0.103137	-0.0775737
0.460167	0.104364	-0.0768567
0.460333	0.105752	-0.0768726
0.4605	0.106893	-0.0774369
0.460667	0.108133	-0.0783566
0.460833	0.109637	-0.0792649
0.461	0.111012	-0.0800378
0.461167	0.112132	-0.081152
0.461333	0.113245	-0.0824692
0.4615	0.114349	-0.0831365
0.461667	0.11518	-0.0830945
0.461833	0.115771	-0.0830483
0.462	0.116563	-0.083279
0.462167	0.117906	-0.0837116
0.462333	0.119666	-0.0843063
0.4625	0.121361	-0.0848102
0.462667	0.122592	-0.0849456
0.462833	0.123185	-0.0846746
0.463	0.123219	-0.0842075
0.463167	0.123075	-0.0839832
0.463333	0.12311	-0.0842881
0.4635	0.123521	-0.0850549
0.463667	0.124312	-0.0859216
0.463833	0.125294	-0.0863843
0.464	0.126481	-0.0859379
0.464167	0.12788	-0.0841966
0.464333	0.12934	-0.0813541
0.4645	0.130845	-0.0778438
0.464667	0.132417	-0.0738011
0.464833	0.134034	-0.0696007
0.465	0.13555	-0.0659248
0.465167	0.136702	-0.0630274
0.465333	0.137363	-0.060611
0.4655	0.137636	-0.0585131
0.465667	0.137849	-0.0568678
0.465833	0.138347	-0.055749
0.466	0.139309	-0.0551926
0.466167	0.1406	-0.0551152
0.466333	0.141729	-0.0553756
0.4665	0.142345	-0.0559298
0.466667	0.142563	-0.056677
0.466833	0.142657	-0.0574878
0.467	0.142743	-0.0583112
0.467167	0.142792	-0.0592419
0.467333	0.142813	-0.0603444
0.4675	0.14284	-0.0613705
0.467667	0.143003	-0.0620323
0.467833	0.143412	-0.0622785
0.468	0.143853	-0.0621772
0.468167	0.144213	-0.0618121
0.468333	0.144442	-0.0612336
0.4685	0.144275	-0.060528
0.468667	0.143849	-0.0598404
0.468833	0.143512	-0.0590971
0.469	0.143062	-0.0580957
0.469167	0.142124	-0.0569727
0.469333	0.140726	-0.056021
0.4695	0.13917	-0.0552987
0.469667	0.137682	-0.0547325
0.469833	0.136429	-0.0543608
0.47	0.1356	-0.0542235
0.470167	0.135195	-0.0540268
0.470333	0.135021	-0.0533728
0.4705	0.134923	-0.0522389
0.470667	0.134839	-0.0508149
0.470833	0.134783	-0.0492885
0.471	0.134964	-0.0479478
0.471167	0.13538	-0.0469565
0.471333	0.135558	-0.0462688
0.4715	0.1353	-0.0458251
0.471667	0.134814	-0.0454875
0.471833	0.13417	-0.0450369
0.472	0.133411	-0.0443782
0.472167	0.132681	-0.0436698
0.472333	0.131869	-0.0430782
0.4725	0.130782	-0.0425418
0.472667	0.129636	-0.0420347
0.472833	0.128661	-0.0416791
0.473	0.127776	-0.0414186
0.473167	0.12702	-0.0410623
0.473333	0.126542	-0.040618
0.4735	0.126183	-0.0401774
0.473667	0.125744	-0.0397195
0.473833	0.125199	-0.0393547
0.474	0.124506	-0.0393486
0.474167	0.123927	-0.0395545
0.474333	0.123774	-0.039549
0.4745	0.123754	-0.0393287
0.474667	0.123299	-0.039025
0.474833	0.122333	-0.0386372
0.475	0.12133	-0.0383062
0.475167	0.120661	-0.0380505
0.475333	0.120382	-0.0377717
0.4755	0.120424	-0.0375862
0.475667	0.120602	-0.0375614
0.475833	0.120711	-0.0375986
0.476	0.120615	-0.0376114
0.476167	0.120247	-0.0374542
0.476333	0.119563	-0.0369678
0.4765	0.118499	-0.0361868
0.476667	0.117079	-0.0352488
0.476833	0.115436	-0.0342244
0.477	0.113739	-0.0331715
0.477167	0.112283	-0.0321973
0.477333	0.111328	-0.0314009
0.4775	0.110781	-0.030764
0.477667	0.110479	-0.0301212
0.477833	0.110542	-0.0294406
0.478	0.111043	-0.028968
0.478167	0.11165	-0.0287955
0.478333	0.112024	-0.0286946
0.4785	0.112127	-0.028525
0.478667	0.111889	-0.0284476
0.478833	0.111199	-0.0287052
0.479	0.110252	-0.0292612
0.479167	0.109245	-0.0297676
0.479333	0.10792	-0.0300669
0.4795	0.105951	-0.0302521
0.479667	0.103605	-0.0302819
0.479833	0.101611	-0.0301483
0.48	0.100351	-0.0298411
0.480167	0.0996826	-0.0292019
0.480333	0.0993912	-0.0283277
0.4805	0.0991263	-0.0274343
0.480667	0.0984215	-0.0264227
0.480833	0.0971419	-0.0250364
0.481	0.0956701	-0.0231474
0.481167	0.0943587	-0.020432
0.481333	0.092851	-0.0154129
0.4815	0.0907441	-0.00580777
0.481667	0.0883975	0.00952762
0.481833	0.0860001	0.0305358
0.482	0.0828738	0.0574843
0.482167	0.0786979	0.0904412
0.482333	0.0740739	0.128201
0.4825	0.0693501	0.168963
0.482667	0.0645557	0.210814
0.482833	0.060426	0.251571
0.483	0.0576672	0.289314
0.483167	0.0560091	0.322576
0.483333	0.0549634	0.349595
0.4835	0.054468	0.368367
0.483667	0.0546656	0.377653
0.483833	0.0553714	0.377326
0.484	0.0563096	0.367821
0.484167	0.0575667	0.350067
0.484333	0.0590377	0.325754
0.4845	0.0603682	0.296606
0.484667	0.0613609	0.26412
0.484833	0.0618671	0.230196
0.485	0.0618798	0.196665
0.485167	0.0617711	0.164457
0.485333	0.0620344	0.134022
0.4855	0.0629505	0.106012
0.485667	0.0644566	0.0811872
0.485833	0.0660241	0.0598791
0.486	0.0670698	0.0419248
0.486167	0.0676172	0.0271469
0.486333	0.0681812	0.0152561
0.4865	0.0689678	0.00567555
0.486667	0.0697237	-0.00220535
0.486833	0.0702766	-0.00893316
0.487	0.0705262	-0.0147059
0.487167	0.0703283	-0.0192001
0.487333	0.0697245	-0.0221334
0.4875	0.0689274	-0.0238851
0.487667	0.0679783	-0.0252472
0.487833	0.0669161	-0.0267279
0.488	0.0661118	-0.028368
0.488167	0.0656233	-0.0297274
0.488333	0.0649966	-0.0303317
0.4885	0.0641846	-0.0305074
0.488667	0.063564	-0.0308354
0.488833	0.0631897	-0.0312715
0.489	0.0628807	-0.0317603
0.489167	0.0625772	-0.0326113
0.489333	0.0623997	-0.0338162
0.4895	0.0624275	-0.035035
0.489667	0.0624744	-0.0361278
0.489833	0.0623399	-0.0371012
0.49	0.0618178	-0.0380117
0.490167	0.0607889	-0.0389129
0.490333	0.0595482	-0.0395396
0.4905	0.0583388	-0.039511
0.490667	0.057124	-0.0388069
0.490833	0.0560462	-0.0376344
0.491	0.0554249	-0.0361943
0.491167	0.0554219	-0.034735
0.491333	0.055779	-0.0334727
0.4915	0.056038	-0.0324809
0.491667	0.0560723	-0.0316994
0.491833	0.0560701	-0.0309929
0.492	0.0560018	-0.0302259
0.492167	0.0555778	-0.0292365
0.492333	0.054923	-0.0280798
0.4925	0.0542893	-0.0271538
0.492667	0.0535484	-0.0268056
0.492833	0.0529024	-0.0272238
0.493	0.0528228	-0.0282284
0.493167	0.0530943	-0.0291424
0.493333	0.0529441	-0.0295387
0.4935	0.0519656	-0.0294425
0.493667	0.0503751	-0.0288543
0.493833	0.0485382	-0.0279549
0.494	0.0468013	-0.0271856
0.494167	0.0454948	-0.0266105
0.494333	0.0446427	-0.0259611
0.4945	0.0440219	-0.0251997
0.494667	0.0435073	-0.0244645
0.494833	0.0430102	-0.0238663
0.495	0.0421475	-0.023349
0.495167	0.0405558	-0.0226064
0.495333	0.0387471	-0.0216379
0.4955	0.0375695	-0.0209886
0.495667	0.0369711	-0.0208535
0.495833	0.0365592	-0.0209119
0.496	0.0363552	-0.0210958
0.496167	0.0362273	-0.0215723
0.496333	0.0359869	-0.0223819
0.4965	0.0358592	-0.0234689
0.496667	0.0359243	-0.0248058
0.496833	0.0358995	-0.0263181
0.497	0.0355799	-0.0276865
0.497167	0.0349438	-0.0285709
0.497333	0.0341374	-0.0290861
0.4975	0.0333417	-0.0295315
0.497667	0.032531	-0.029737
0.497833	0.0317268	-0.0294473
0.498	0.0311445	-0.0289614
0.498167	0.030825	-0.0287012
0.498333	0.0305892	-0.0287661
0.4985	0.03042	-0.0290648
0.498667	0.0305829	-0.0293915
0.498833	0.0310559	-0.0295444
0.499	0.0313773	-0.0295367
0.499167	0.0313734	-0.0294758
0.499333	0.0311673	-0.0292875
0.4995	0.0307562	-0.0288611
0.499667	0.030216	-0.0282058
0.499833	0.0296854	-0.0272481
0.5	0.0292587	-0.0259099
0.500167	0.0291843	-0.0243063
0.500333	0.029593	-0.0227473
0.5005	0.0302849	-0.0215933
0.500667	0.0308024	-0.0208531
0.500833	0.0307008	-0.0203457
0.501	0.0301674	-0.0201694
0.501167	0.0296144	-0.0204035
0.501333	0.0290995	-0.0208941
0.5015	0.0287176	-0.0216203
0.501667	0.0285745	-0.022672
0.501833	0.0287368	-0.0239093
0.502	0.0291801	-0.0250681
0.502167	0.0294431	-0.0259733
0.502333	0.0291465	-0.0265633
0.5025	0.02857	-0.0269897
0.502667	0.0281484	-0.0274485
0.502833	0.0278231	-0.0279402
0.503	0.0273713	-0.0284136
0.503167	0.0268318	-0.0287943
0.503333	0.0263222	-0.0290175
0.5035	0.0258421	-0.029134
0.503667	0.0252173	-0.029179
0.503833	0.0243904	-0.0292356
0.504	0.0237701	-0.0294669
0.504167	0.0237244	-0.0298283
0.504333	0.0238362	-0.0301461
0.5045	0.0234947	-0.0304778
0.504667	0.0227918	-0.0310369
0.504833	0.0219872	-0.031936
0.505	0.021041	-0.0331832
0.505167	0.0200555	-0.0345533
0.505333	0.0191669	-0.0356042
0.5055	0.0183015	-0.0360963
0.505667	0.0174714	-0.0360557
0.505833	0.016841	-0.0355848
0.506	0.0163464	-0.0348635
0.506167	0.0158438	-0.0341927
0.506333	0.0157441	-0.0336451
0.5065	0.0164196	-0.0324543
0.506667	0.0174888	-0.0291754
0.506833	0.0183876	-0.0224491
0.507	0.0188721	-0.0114352
0.507167	0.0190457	0.0043058
0.507333	0.0191102	0.0249517
0.5075	0.0188545	0.0503513
0.507667	0.0177704	0.080136
0.507833	0.0157824	0.11346
0.508	0.0130436	0.148724
0.508167	0.00941812	0.184183
0.508333	0.00523332	0.218315
0.5085	0.00148565	0.24964
0.508667	-0.00160708	0.277114
0.508833	-0.00479132	0.300352
0.509	-0.00820746	0.31919
0.509167	-0.0111608	0.333719
0.509333	-0.0131634	0.344169
0.5095	-0.014285	0.350423
0.509667	-0.0147577	0.351902
0.509833	-0.014476	0.347816
0.51	-0.0132121	0.337842
0.510167	-0.0111686	0.322386
0.510333	-0.00871579	0.302095
0.5105	-0.00595231	0.277623
0.510667	-0.00292355	0.24985
0.510833	0.000160721	0.219893
0.511	0.00305735	0.188625
0.511167	0.00566838	0.156803
0.511333	0.0081439	0.125675
0.5115	0.0105175	0.0964925
0.511667	0.0125309	0.0697323
0.511833	0.0141332	0.0452592
0.512	0.0153738	0.0230543
0.512167	0.0161601	0.00354227
0.512333	0.0166717	-0.0129328
0.5125	0.0171927	-0.0265473
0.512667	0.0177943	-0.0376627
0.512833	0.0185097	-0.0464971
0.513	0.0192466	-0.0532753
0.513167	0.0197912	-0.0583927
0.513333	0.0199663	-0.0622545
0.5135	0.0194185	-0.0650377
0.513667	0.0178443	-0.066979
0.513833	0.0158672	-0.0687272
0.514	0.0146055	-0.0708239
0.514167	0.0143024	-0.0733188
0.514333	0.0145587	-0.0760527
0.5145	0.015196	-0.0786956
0.514667	0.0159959	-0.0808411
0.514833	0.0166213	-0.0824585
0.515	0.0170784	-0.0839873
0.515167	0.0173786	-0.0856857
0.515333	0.0172905	-0.0872769
0.5155	0.0169482	-0.0885367
0.515667	0.0167401	-0.0895746
0.515833	0.0166898	-0.0905768
0.516	0.0166653	-0.0916535
0.516167	0.0166284	-0.0928261
0.516333	0.016409	-0.0940887
0.5165	0.0157652	-0.095326
0.516667	0.0147663	-0.0963496
0.516833	0.0137852	-0.0970926
0.517	0.0130599	-0.0976205
0.517167	0.0126672	-0.0980967
0.517333	0.0127645	-0.098618
0.5175	0.0133521	-0.0990406
0.517667	0.0141824	-0.0992187
0.517833	0.0150526	-0.0991891
0.518	0.0157683	-0.0989611
0.518167	0.0161863	-0.0984895
0.518333	0.0165146	-0.0977769
0.5185	0.016986	-0.0967647
0.518667	0.0173885	-0.0954885
0.518833	0.0174817	-0.0941885
0.519	0.0174242	-0.0930204
0.519167	0.0173482	-0.0920309
0.519333	0.0171622	-0.0912537
0.5195	0.0169085	-0.0906383
0.519667	0.0165703	-0.090121
0.519833	0.0159233	-0.0897265
0.52	0.0150504	-0.0893812
0.520167	0.0142684	-0.0888623
0.520333	0.0137177	-0.0881512
0.5205	0.0135374	-0.0874719
0.520667	0.013701	-0.0869535
0.520833	0.013833	-0.086537
0.521	0.0139709	-0.0861579
0.521167	0.0145366	-0.0858334
0.521333	0.0153987	-0.085478
0.5215	0.016161	-0.0848249
0.521667	0.0168961	-0.083782
0.521833	0.0179408	-0.0826771
0.522	0.0193514	-0.0819339
0.522167	0.0207792	-0.0816722
0.522333	0.0218213	-0.0816791
0.5225	0.0224221	-0.081827
0.522667	0.0228878	-0.0823599
0.522833	0.0234806	-0.0834463
0.523	0.0241013	-0.0848003
0.523167	0.0244999	-0.0859782
0.523333	0.0246874	-0.0868566
0.5235	0.0248653	-0.0875826
0.523667	0.0250045	-0.0881404
0.523833	0.0249605	-0.0885209
0.524	0.0248639	-0.0888369
0.524167	0.0248087	-0.0888042
0.524333	0.0247477	-0.0880663
0.5245	0.0248779	-0.086868
0.524667	0.0253471	-0.0856363
0.524833	0.0261613	-0.0845739
0.525	0.0274809	-0.0837851
0.525167	0.0291288	-0.083364
0.525333	0.0305362	-0.083384
0.5255	0.0316211	-0.083624
0.525667	0.0326573	-0.0835997
0.525833	0.0334318	-0.0830769
0.526	0.0336147	-0.082301
0.526167	0.0334342	-0.0815414
0.526333	0.0332251	-0.0806021
0.5265	0.0329716	-0.0793534
0.526667	0.0326302	-0.0782332
0.526833	0.0322294	-0.0776104
0.527	0.0316754	-0.0773871
0.527167	0.0310372	-0.0774074
0.527333	0.0305984	-0.0775822
0.5275	0.0304208	-0.077695
0.527667	0.030327	-0.0776365
0.527833	0.0303311	-0.0776198
0.528	0.0307042	-0.0777354
0.528167	0.0314004	-0.0778348
0.528333	0.0319966	-0.0780321
0.5285	0.0323153	-0.0786381
0.528667	0.0324488	-0.0795922
0.528833	0.03241	-0.0804907
0.529	0.0323004	-0.0812079
0.529167	0.0324976	-0.0819533
0.529333	0.033133	-0.0827184
0.5295	0.0338268	-0.0833609
0.529667	0.0344105	-0.0839898
0.529833	0.0351952	-0.0846881
0.53	0.036285	-0.0851848
0.530167	0.0373356	-0.0851813
0.530333	0.0381237	-0.0846736
0.5305	0.0387718	-0.0831661
0.530667	0.0393702	-0.0791652
0.530833	0.039668	-0.0710427
0.531	0.0392893	-0.0577918
0.531167	0.0380477	-0.0392886
0.531333	0.0356843	-0.015876
0.5315	0.0320252	0.0122793
0.531667	0.0273083	0.0446834
0.531833	0.0219241	0.0799854
0.532	0.0164832	0.116425
0.532167	0.0115411	0.152173
0.532333	0.00718107	0.185441
0.5325	0.00341583	0.214703
0.532667	0.000444831	0.238659
0.532833	-0.00144719	0.256307
0.533	-0.00218271	0.267328
0.533167	-0.00177425	0.271902
0.533333	0.000248226	0.270374
0.5335	0.00407489	0.263389
0.533667	0.00870216	0.251755
0.533833	0.0130667	0.236194
0.534	0.0171449	0.217254
0.534167	0.0212146	0.195366
0.534333	0.0251418	0.171041
0.5345	0.0287969	0.144753
0.534667	0.0321496	0.117014
0.534833	0.0348856	0.0886357
0.535	0.036798	0.0604236
0.535167	0.0383719	0.0329356
0.535333	0.0403069	0.0066248
0.5355	0.0426002	-0.0180066
0.535667	0.0447366	-0.0404708
0.535833	0.046656	-0.0606479
0.536	0.0487479	-0.0787055
0.536167	0.0509907	-0.0944315
0.536333	0.0529294	-0.107417
0.5365	0.0544194	-0.117897
0.536667	0.0555754	-0.126405
0.536833	0.0565286	-0.133217
0.537	0.0577348	-0.138609
0.537167	0.0595212	-0.142883
0.537333	0.0615668	-0.146373
0.5375	0.0633508	-0.149466
0.537667	0.0645907	-0.152215
0.537833	0.0654129	-0.154498
0.538	0.0661278	-0.156471
0.538167	0.0667594	-0.158313
0.538333	0.0671888	-0.160058
0.5385	0.0673498	-0.16171
0.538667	0.0671481	-0.163153
0.538833	0.0667176	-0.164529
0.539	0.0663161	-0.166272
0.539167	0.0660143	-0.168215
0.539333	0.0658498	-0.169891
0.5395	0.0659091	-0.171427
0.539667	0.0662543	-0.173081
0.539833	0.0668164	-0.174726
0.54	0.0676441	-0.176019
0.540167	0.0690964	-0.176712
0.540333	0.0711944	-0.177009
0.5405	0.0733601	-0.177297
0.540667	0.0752299	-0.17769
0.540833	0.0769986	-0.178102
0.541	0.0787995	-0.178382
0.541167	0.0805192	-0.17842
0.541333	0.0822388	-0.1783
0.5415	0.084243	-0.17821
0.541667	0.0865445	-0.178178
0.541833	0.0886986	-0.178204
0.542	0.0903032	-0.178566
0.542167	0.0913223	-0.179438
0.542333	0.0917553	-0.180574
0.5425	0.0917716	-0.181818
0.542667	0.091838	-0.183296
0.542833	0.0921028	-0.185007
0.543	0.0924001	-0.186821
0.543167	0.0927065	-0.188722
0.543333	0.0931229	-0.190667
0.5435	0.0937602	-0.192446
0.543667	0.0946719	-0.193953
0.543833	0.0958028	-0.195261
0.544	0.0970017	-0.196435
0.544167	0.0981235	-0.197637
0.544333	0.0990444	-0.199049
0.5445	0.0996215	-0.200659
0.544667	0.0997847	-0.202561
0.544833	0.0995468	-0.204774
0.545	0.0990217	-0.206874
0.545167	0.0983853	-0.208505
0.545333	0.0978083	-0.209521
0.5455	0.0974321	-0.209717
0.545667	0.0973192	-0.209299
0.545833	0.0977642	-0.208992
0.546	0.0990767	-0.209222
0.546167	0.100871	-0.209791
0.546333	0.102676	-0.210414
0.5465	0.104522	-0.211011
0.546667	0.106275	-0.211566
0.546833	0.107651	-0.212137
0.547	0.108613	-0.212751
0.547167	0.109184	-0.213202
0.547333	0.10939	-0.213372
0.5475	0.109272	-0.213606
0.547667	0.10868	-0.214168
0.547833	0.107396	-0.214913
0.548	0.105699	-0.215851
0.548167	0.104185	-0.217065
0.548333	0.102891	-0.218308
0.5485	0.101433	-0.219256
0.548667	0.0997043	-0.219675
0.548833	0.0979223	-0.219605
0.549	0.0963598	-0.219385
0.549167	0.0950635	-0.219095
0.549333	0.0938766	-0.218536
0.5495	0.0927817	-0.217765
0.549667	0.0920789	-0.216999
0.549833	0.0920639	-0.216285
0.55	0.0925342	-0.215589
0.550167	0.0931185	-0.214985
0.550333	0.0936739	-0.214617
0.5505	0.0940375	-0.214522
0.550667	0.0940833	-0.214511
0.550833	0.0937561	-0.21423
0.551	0.0930813	-0.213389
0.551167	0.0923786	-0.212108
0.551333	0.0918616	-0.210936
0.5515	0.0914869	-0.210223
0.551667	0.0913315	-0.209806
0.551833	0.0913968	-0.209477
0.552	0.0914266	-0.209201
0.552167	0.0912352	-0.209042
0.552333	0.0908316	-0.209082
0.5525	0.0901587	-0.209079
0.552667	0.0892141	-0.20875
0.552833	0.08822	-0.208189
0.553	0.0871516	-0.207347
0.553167	0.0858945	-0.206036
0.553333	0.0846603	-0.204462
0.5535	0.0834541	-0.202908
0.553667	0.0821115	-0.20143
0.553833	0.0807954	-0.199905
0.554	0.0795408	-0.198184
0.554167	0.0782057	-0.196464
0.554333	0.0770304	-0.195127
0.5545	0.0761685	-0.194107
0.554667	0.0753562	-0.193035
0.554833	0.0744448	-0.191911
0.555	0.0733408	-0.190839
0.555167	0.0719078	-0.189713
0.555333	0.0702686	-0.188633
0.5555	0.0686166	-0.187698
0.555667	0.0670401	-0.186766
0.555833	0.0656386	-0.185685
0.556	0.0644129	-0.18433
0.556167	0.0632636	-0.182689
0.556333	0.0622127	-0.180757
0.5565	0.0612664	-0.17856
0.556667	0.0603591	-0.176487
0.556833	0.0595618	-0.174899
0.557	0.058844	-0.173669
0.557167	0.0580204	-0.172498
0.557333	0.0570541	-0.171215
0.5575	0.0560555	-0.169796
0.557667	0.0551226	-0.168368
0.557833	0.0542945	-0.167171
0.558	0.0535081	-0.166336
0.558167	0.0525543	-0.165596
0.558333	0.0513675	-0.164641
0.5585	0.050047	-0.163556
0.558667	0.0485199	-0.162538
0.558833	0.0467993	-0.1616
0.559	0.0451663	-0.160697
0.559167	0.0437206	-0.159865
0.559333	0.0423886	-0.159115
0.5595	0.0412856	-0.158244
0.559667	0.0405713	-0.157109
0.559833	0.040133	-0.155828
0.56	0.0398087	-0.154525
0.560167	0.0395899	-0.153271
0.560333	0.0392417	-0.152172
0.5605	0.0384892	-0.151379
0.560667	0.037495	-0.150979
0.560833	0.0365359	-0.150858
0.561	0.035658	-0.150656
0.561167	0.0348352	-0.15002
0.561333	0.0341263	-0.149064
0.5615	0.0335656	-0.148072
0.561667	0.0330653	-0.147027
0.561833	0.0323928	-0.145915
0.562	0.0311979	-0.144775
0.562167	0.0293535	-0.143477
0.562333	0.02721	-0.141862
0.5625	0.0253044	-0.140015
0.562667	0.0239249	-0.138309
0.562833	0.0229815	-0.136994
0.563	0.0221913	-0.13589
0.563167	0.0213482	-0.134673
0.563333	0.0205145	-0.133266
0.5635	0.019907	-0.131918
0.563667	0.0195485	-0.130869
0.563833	0.0191027	-0.130059
0.564	0.0182077	-0.129229
0.564167	0.0170475	-0.128042
0.564333	0.015884	-0.126262
0.5645	0.0144257	-0.123864
0.564667	0.0125339	-0.120871
0.564833	0.0104486	-0.117344
0.565	0.00827196	-0.113433
0.565167	0.00606448	-0.109253
0.565333	0.00402068	-0.104856
0.5655	0.00246053	-0.100373
0.565667	0.00155652	-0.0960668
0.565833	0.0010356	-0.0917043
0.566	0.000557052	-0.0859771
0.566167	0.000125732	-0.0770768
0.566333	-0.000216136	-0.0632897
0.5665	-0.000914448	-0.0432595
0.566667	-0.0027107	-0.0165016
0.566833	-0.00576546	0.0166687
0.567	-0.0094432	0.0549761
0.567167	-0.013035	0.0955293
0.567333	-0.0160871	0.13432
0.5675	-0.0182843	0.167314
0.567667	-0.0195484	0.191342
0.567833	-0.0199287	0.204723
0.568	-0.0194297	0.207038
0.568167	-0.0183702	0.198786
0.568333	-0.0172446	0.181613
0.5685	-0.0162223	0.158168
0.568667	-0.0153912	0.131279
0.568833	-0.0147005	0.103127
0.569	-0.0140511	0.0751587
0.569167	-0.0136643	0.04858
0.569333	-0.0135933	0.0242676
0.5695	-0.0136816	0.00262635
0.569667	-0.0139936	-0.0159128
0.569833	-0.0146569	-0.0311633
0.57	-0.0155352	-0.0435271
0.570167	-0.0162049	-0.0533038
0.570333	-0.0162887	-0.0607708
0.5705	-0.0158369	-0.0665307
0.570667	-0.0154271	-0.0708617
0.570833	-0.0156166	-0.0736589
0.571	-0.0161752	-0.075027
0.571167	-0.016472	-0.0752523
0.571333	-0.0163749	-0.0743589
0.5715	-0.0161004	-0.0719189
0.571667	-0.0158568	-0.0671325
0.571833	-0.0157506	-0.0597855
0.572	-0.0156123	-0.0504306
0.572167	-0.0153481	-0.0400184
0.572333	-0.0152083	-0.0314869
0.5725	-0.0155333	-0.0263483
0.572667	-0.0164123	-0.0219966
0.572833	-0.0177474	-0.0179965
0.573	-0.0194641	-0.015959
0.573167	-0.0212261	-0.0148658
0.573333	-0.022649	-0.0136508
0.5735	-0.0237646	-0.0131479
0.573667	-0.0247528	-0.01476
0.573833	-0.0255126	-0.0198973
0.574	-0.0258442	-0.0295487
0.574167	-0.0255191	-0.0442922
0.574333	-0.0243638	-0.0648432
0.5745	-0.0231305	-0.0910959
0.574667	-0.0228288	-0.120986
0.574833	-0.0230813	-0.152273
0.575	-0.0229888	-0.183388
0.575167	-0.0226823	-0.211986
0.575333	-0.02287	-0.23587
0.5755	-0.0238928	-0.253977
0.575667	-0.0255712	-0.266479
0.575833	-0.0275168	-0.274816
0.576	-0.0294714	-0.279531
0.576167	-0.0312257	-0.280969
0.576333	-0.032539	-0.281414
0.5765	-0.0338379	-0.282426
0.576667	-0.0360405	-0.283118
0.576833	-0.0392341	-0.282135
0.577	-0.0428926	-0.278588
0.577167	-0.046494	-0.271235
0.577333	-0.0494691	-0.258625
0.5775	-0.0517607	-0.240138
0.577667	-0.053908	-0.216254
0.577833	-0.0561517	-0.188732
0.578	-0.058032	-0.160536
0.578167	-0.059142	-0.134546
0.578333	-0.0597669	-0.112525
0.5785	-0.0603308	-0.0951616
0.578667	-0.060841	-0.0826698
0.578833	-0.0613124	-0.0753417
0.579	-0.0617764	-0.0727288
0.579167	-0.0617325	-0.0733131
0.579333	-0.0608393	-0.0759681
0.5795	-0.059559	-0.0802342
0.579667	-0.0583907	-0.0852461
0.579833	-0.057523	-0.0897391
0.58	-0.0570158	-0.0930726
0.580167	-0.0568295	-0.0954193
0.580333	-0.0570417	-0.0969569
0.5805	-0.0577193	-0.0975823
0.580667	-0.0587695	-0.0972233
0.580833	-0.0599376	-0.0959491
0.581	-0.0610445	-0.0938044
0.581167	-0.0624033	-0.0904768
0.581333	-0.0641087	-0.085751
0.5815	-0.0657521	-0.0803303
0.581667	-0.0672607	-0.0747034
0.581833	-0.0687393	-0.0681582
0.582	-0.0699451	-0.0606857
0.582167	-0.0705787	-0.0536662
0.582333	-0.0707884	-0.0476605
0.5825	-0.0709422	-0.0421009
0.582667	-0.0709315	-0.036894
0.582833	-0.0704238	-0.0325401
0.583	-0.0695585	-0.0293096
0.583167	-0.0686744	-0.0268691
0.583333	-0.067745	-0.0247206
0.5835	-0.0668183	-0.0226318
0.583667	-0.0663295	-0.0205038
0.583833	-0.0662771	-0.0185216
0.584	-0.0662392	-0.0170129
0.584167	-0.0661277	-0.0158737
0.584333	-0.0662723	-0.0147628
0.5845	-0.0671824	-0.0137041
0.584667	-0.068884	-0.0129478
0.584833	0.0100708	0.0158691
0.585	0.0100708	0.0158262
0.585167	0.00997274	0.0156796
0.585333	0.00968484	0.0154476
0.5855	0.0094025	0.0151917
0.585667	0.00925674	0.0150697
0.585833	0.00910608	0.0152886
0.586	0.00896438	0.0157637
0.586167	0.00900529	0.0161933
0.586333	0.00926421	0.0164611
0.5865	0.00948892	0.0167263
0.586667	0.00953269	0.0171278
0.586833	0.00957946	0.0175661
0.587	0.00956926	0.0178886
0.587167	0.00937624	0.0179823
0.587333	0.0092347	0.0178113
0.5875	0.00920497	0.0175333
0.587667	0.00903482	0.0172766
0.587833	0.00867797	0.0170479
0.588	0.00831585	0.0169781
0.588167	0.00820622	0.0172182
0.588333	0.0086718	0.0176682
0.5885	0.00979984	0.0181494
0.588667	0.0115134	0.0186119
0.588833	0.0137651	0.0190682
0.589	0.0160768	0.0195696
0.589167	0.0178429	0.02017
0.589333	0.0191173	0.0208408
0.5895	0.020164	0.0215335
0.589667	0.0208947	0.0223072
0.589833	0.0210209	0.0231688
0.59	0.0203325	0.0239071
0.590167	0.0190361	0.0242314
0.590333	0.0177112	0.0239331
0.5905	0.0168055	0.023002
0.590667	0.0164069	0.0215561
0.590833	0.016249	0.0198717
0.591	0.0158415	0.0183719
0.591167	0.0151043	0.0172152
0.591333	0.0144233	0.0162181
0.5915	0.0137901	0.0152074
0.591667	0.0130363	0.0142754
0.591833	0.0124985	0.0136095
0.592	0.0125531	0.0130944
0.592167	0.0131609	0.0124966
0.592333	0.0138418	0.0119735
0.5925	0.0141287	0.0118407
0.592667	0.0140297	0.0120178
0.592833	0.0137094	0.0121895
0.593	0.0133343	0.0122398
0.593167	0.0130277	0.0121407
0.593333	0.0127162	0.0117637
0.5935	0.0124693	0.0111715
0.593667	0.0126086	0.0107339
0.593833	0.0132296	0.01078
0.594	0.0140482	0.0112797
0.594167	0.0149033	0.0118891
0.594333	0.0158541	0.0123668
0.5945	0.0165816	0.0127767
0.594667	0.0166721	0.013239
0.594833	0.0164941	0.013759
0.595	0.0167036	0.0142559
0.595167	0.0172489	0.0145632
0.595333	0.0176411	0.0145893
0.5955	0.0177318	0.014427
0.595667	0.017812	0.014163
0.595833	0.0180321	0.0138058
0.596	0.0181773	0.0133932
0.596167	0.018324	0.0130701
0.596333	0.018938	0.0130142
0.5965	0.0201271	0.0133057
0.596667	0.021565	0.0139622
0.596833	0.0229121	0.0148734
0.597	0.0238661	0.0157768
0.597167	0.0243196	0.0165965
0.597333	0.0245138	0.0174743
0.5975	0.0246672	0.0184845
0.597667	0.0248432	0.0196331
0.597833	0.0251117	0.0208519
0.598	0.0253504	0.0219196
0.598167	0.0252995	0.0226638
0.598333	0.024969	0.023153
0.5985	0.0245286	0.0235128
0.598667	0.024096	0.0237118
0.598833	0.0237522	0.0236506
0.599	0.0232478	0.0233295
0.599167	0.022209	0.0228614
0.599333	0.0209539	0.0223243
0.5995	0.0201143	0.0215471
0.599667	0.01967	0.0202494
0.599833	0.019184	0.0185198
0.6	0.0184344	0.0168483
0.600167	0.0175024	0.0156119
0.600333	0.0166449	0.0146803
0.6005	0.0162042	0.0137126
0.600667	0.0161827	0.012732
0.600833	0.0162663	0.0121223
0.601	0.0168703	0.0123203
0.601167	0.018881	0.0134372
0.601333	0.0222575	0.0150291
0.6015	0.0260302	0.0164607
0.601667	0.0292269	0.0173068
0.601833	0.0315032	0.017501
0.602	0.0331536	0.0172493
0.602167	0.0344966	0.0166951
0.602333	0.0354121	0.0159669
0.6025	0.0355509	0.0153143
0.602667	0.0348495	0.0148729
0.602833	0.0336471	0.0147435
0.603	0.0322324	0.0150818
0.603167	0.0307768	0.0159198
0.603333	0.0296447	0.0171824
0.6035	0.0289398	0.0186957
0.603667	0.0282161	0.0203155
0.603833	0.0272811	0.02199
0.604	0.0263653	0.023565
0.604167	0.025462	0.024962
0.604333	0.0244123	0.0264758
0.6045	0.0232919	0.0289418
0.604667	0.0223265	0.033794
0.604833	0.0217524	0.0427223
0.605	0.0217391	0.0571941
0.605167	0.0217983	0.0780359
0.605333	0.0207287	0.104972
0.6055	0.0181509	0.136239
0.605667	0.0151009	0.168667
0.605833	0.0126979	0.198406
0.606	0.0113074	0.222035
0.606167	0.0108067	0.237438
0.606333	0.0109964	0.243981
0.6065	0.0116811	0.242067
0.606667	0.012757	0.23261
0.606833	0.014224	0.216948
0.607	0.0157873	0.196849
0.607167	0.0170783	0.174239
0.607333	0.0180482	0.15089
0.6075	0.0186973	0.128213
0.607667	0.0189784	0.107233
0.607833	0.0188721	0.0885526
0.608	0.0184401	0.0723216
0.608167	0.0178646	0.0585237
0.608333	0.0172678	0.0472475
0.6085	0.0167482	0.0384698
0.608667	0.0165957	0.0319199
0.608833	0.0171198	0.0272206
0.609	0.0183973	0.0239079
0.609167	0.0201535	0.0216035
0.609333	0.0218549	0.0202043
0.6095	0.0233599	0.0195226
0.609667	0.0248388	0.0191107
0.609833	0.0260106	0.0186474
0.61	0.0268115	0.0179248
0.610167	0.0276535	0.0167754
0.610333	0.0282764	0.0154322
0.6105	0.0282002	0.014275
0.610667	0.0277185	0.0131522
0.610833	0.0271747	0.0118598
0.611	0.0266839	0.0110466
0.611167	0.0267384	0.0116909
0.611333	0.0278124	0.0142232
0.6115	0.0298891	0.018578
0.611667	0.0325952	0.0242236
0.611833	0.0352485	0.0300108
0.612	0.0372442	0.0348108
0.612167	0.0385598	0.0384084
0.612333	0.0395297	0.0412278
0.6125	0.0403716	0.0434503
0.612667	0.0409964	0.0450134
0.612833	0.04126	0.046163
0.613	0.0412526	0.0473288
0.613167	0.0409126	0.0486443
0.613333	0.0402088	0.0499746
0.6135	0.0395796	0.0511279
0.613667	0.0391468	0.0519708
0.613833	0.0384212	0.0525163
0.614	0.0370145	0.0529438
0.614167	0.0350082	0.0535553
0.614333	0.0329625	0.0544871
0.6145	0.0314419	0.0554268
0.614667	0.0304844	0.0559161
0.614833	0.0299588	0.0559731
0.615	0.0299853	0.0560485
0.615167	0.0305109	0.0564117
0.615333	0.0311672	0.0569976
0.6155	0.0319036	0.0576119
0.615667	0.03281	0.0580296
0.615833	0.0335319	0.0581712
0.616	0.0336792	0.0581488
0.616167	0.0332071	0.0579618
0.616333	0.0323513	0.0574392
0.6165	0.0312935	0.0561793
0.616667	0.029566	0.0534141
0.616833	0.0266286	0.0487902
0.617	0.022906	0.0429229
0.617167	0.0192057	0.0367724
0.617333	0.0158659	0.0311243
0.6175	0.012946	0.0264544
0.617667	0.0104687	0.0228544
0.617833	0.00845568	0.0202236
0.618	0.00700032	0.0184501
0.618167	0.00622783	0.0173445
0.618333	0.00609017	0.0167008
0.6185	0.00630327	0.0164418
0.618667	0.00673033	0.0165791
0.618833	0.00744415	0.0171739
0.619	0.00819261	0.0181738
0.619167	0.00852317	0.019206
0.619333	0.00844885	0.0199124
0.6195	0.00836601	0.0203226
0.619667	0.00862756	0.0205098
0.619833	0.00940767	0.0204042
0.62	0.0106477	0.0201438
0.620167	0.0120891	0.0199398
0.620333	0.0134274	0.0197149
0.6205	0.0145371	0.0193107
0.620667	0.0153434	0.0188486
0.620833	0.0156515	0.0187542
0.621	0.0155233	0.0193935
0.621167	0.0153647	0.0206664
0.621333	0.0154935	0.0221393
0.6215	0.0158576	0.0234014
0.621667	0.0161655	0.0242554
0.621833	0.016284	0.0248648
0.622	0.0162164	0.0254891
0.622167	0.0158019	0.025987
0.622333	0.0149225	0.0260145
0.6225	0.0137972	0.0256154
0.622667	0.0127823	0.0251405
0.622833	0.0121281	0.0247285
0.623	0.0119478	0.0241816
0.623167	0.0121104	0.0232796
0.623333	0.0123573	0.0220139
0.6235	0.0126261	0.0204818
0.623667	0.0129732	0.0187733
0.623833	0.0133304	0.0170398
0.624	0.0135244	0.0154786
0.624167	0.0135859	0.0141287
0.624333	0.0136739	0.0129432
0.6245	0.0136983	0.0119829
0.624667	0.0133551	0.0112685
0.624833	0.0121296	0.0108674
0.625	0.00968291	0.0109568
0.625167	0.00640438	0.0114394
0.625333	0.00288644	0.0120312
0.6255	-0.000655666	0.0125719
0.625667	-0.0040513	0.0129507
0.625833	-0.00695765	0.013189
0.626	-0.00916353	0.0134346
0.626167	-0.0107062	0.0136283
0.626333	-0.0117119	0.0135832
0.6265	-0.0123047	0.0131924
0.626667	-0.0125055	0.0124153
0.626833	-0.0121812	0.0114282
0.627	-0.0114053	0.0105513
0.627167	-0.0106719	0.00996266
0.627333	-0.0102942	0.0096122
0.6275	-0.0100646	0.0093201
0.627667	-0.00976472	0.00896019
0.627833	-0.00937633	0.00849376
0.628	-0.00890725	0.0079107
0.628167	-0.008277	0.00723225
0.628333	-0.00742243	0.00659617
0.6285	-0.00656006	0.00614254
0.628667	-0.0058784	0.0057872
0.628833	-0.00531838	0.00539474
0.629	-0.00488134	0.00508354
0.629167	-0.00460118	0.00511299
0.629333	-0.00448091	0.00551176
0.6295	-0.00458928	0.0060847
0.629667	-0.004903	0.0066804
0.629833	-0.00512095	0.00724898
0.63	-0.00491677	0.00784643
0.630167	-0.00436022	0.00856761
0.630333	-0.00372045	0.00934698
0.6305	-0.00302968	0.010052
0.630667	-0.00215331	0.0106773
0.630833	-0.00113026	0.0111399
0.631	-0.000279185	0.0112097
0.631167	7.45352E-005	0.0108259
0.631333	-0.000170397	0.0102556
0.6315	-0.000957309	0.0100405
0.631667	-0.00203471	0.0104627
0.631833	-0.00291768	0.0109471
0.632	-0.00312697	0.0107522
0.632167	-0.00250744	0.00987996
0.632333	-0.00144291	0.0086985
0.6325	-0.00047271	0.00743819
0.632667	0.000285523	0.00622854
0.632833	0.000889809	0.00510566
0.633	0.00124263	0.00417153
0.633167	0.00138747	0.00368476
0.633333	0.00162017	0.00376301
0.6335	0.00211118	0.0043383
0.633667	0.00263645	0.00536385
0.633833	0.00300055	0.00677352
0.634	0.00329332	0.00847563
0.634167	0.00339425	0.0103879
0.634333	0.00306987	0.0123487
0.6345	0.0025233	0.0142507
0.634667	0.00252781	0.0160723
0.634833	0.00375564	0.0177329
0.635	0.00589001	0.019071
0.635167	0.00812785	0.0198803
0.635333	0.0100316	0.0201078
0.6355	0.0116847	0.0199867
0.635667	0.0136203	0.0198908
0.635833	0.0160842	0.0199782
0.636	0.0187073	0.0200657
0.636167	0.0212402	0.0199809
0.636333	0.0235485	0.0197371
0.6365	0.0252639	0.0193682
0.636667	0.0263324	0.0188688
0.636833	0.0270536	0.0182831
0.637	0.0274083	0.0177013
0.637167	0.0272971	0.0171381
0.637333	0.0268962	0.0165831
0.6375	0.0262435	0.016182
0.637667	0.0252368	0.016151
0.637833	0.0239795	0.0165436
0.638	0.0226689	0.0171641
0.638167	0.0214414	0.0178134
0.638333	0.020415	0.0186375
0.6385	0.0195693	0.0198691
0.638667	0.0187604	0.0214285
0.638833	0.0181503	0.0231281
0.639	0.0180968	0.0248974
0.639167	0.0184228	0.0266307
0.639333	0.0186719	0.0280667
0.6395	0.0189436	0.029442
0.639667	0.0196308	0.0325554
0.639833	0.020799	0.0392301
0.64	0.0220837	0.0471683
0.640167	0.0230948	0.0513629
0.640333	0.0241618	0.0497429
0.6405	0.0259082	0.0422199
0.640667	0.0283975	0.0278381
0.640833	0.0314635	0.0052795
0.641	0.0349595	-0.0254545
0.641167	0.0386833	-0.0612058
0.641333	0.0424992	-0.0981851
0.6415	0.0461229	-0.134869
0.641667	0.0488969	-0.170299
0.641833	0.0502537	-0.202954
0.642	0.0504209	-0.231733
0.642167	0.0503021	-0.256071
0.642333	0.0503466	-0.275514
0.6425	0.0500815	-0.289789
0.642667	0.049057	-0.298672
0.642833	0.0474377	-0.302379
0.643	0.0457387	-0.301983
0.643167	0.0444867	-0.298174
0.643333	0.043959	-0.290864
0.6435	0.0440975	-0.280792
0.643667	0.0446583	-0.269525
0.643833	0.0454448	-0.257913
0.644	0.0463129	-0.246333
0.644167	0.0471391	-0.235433
0.644333	0.047915	-0.225293
0.6445	0.0488659	-0.215181
0.644667	0.0501959	-0.204691
0.644833	0.051564	-0.194324
0.645	0.0524178	-0.184899
0.645167	0.0525176	-0.176945
0.645333	0.0519604	-0.170752
0.6455	0.050898	-0.166204
0.645667	0.0491065	-0.162616
0.645833	0.0465072	-0.159062
0.646	0.043611	-0.154234
0.646167	0.0408305	-0.146612
0.646333	0.0382005	-0.13567
0.6465	0.0358293	-0.122425
0.646667	0.0340658	-0.1086
0.646833	0.0331707	-0.0955951
0.647	0.0331007	-0.0840066
0.647167	0.0336082	-0.0738775
0.647333	0.0343167	-0.0653817
0.6475	0.0349562	-0.058769
0.647667	0.0356348	-0.0539381
0.647833	0.0365293	-0.0508768
0.648	0.037527	-0.0498339
0.648167	0.0383638	-0.0505551
0.648333	0.0387911	-0.0519576
0.6485	0.0388233	-0.052765
0.648667	0.0387774	-0.0521269
0.648833	0.0386667	-0.0499143
0.649	0.0383578	-0.0468392
0.649167	0.0381489	-0.0437275
0.649333	0.0380639	-0.0407934
0.6495	0.0376053	-0.0380924
0.649667	0.0365826	-0.035862
0.649833	0.0351514	-0.0340269
0.65	0.0335488	-0.0321636
0.650167	0.0321304	-0.0300458
0.650333	0.0311525	-0.0276285
0.6505	0.030597	-0.0251213
0.650667	0.0304488	-0.0234383
0.650833	0.030917	-0.0233689
0.651	0.0321597	-0.0248057
0.651167	0.0340199	-0.0278408
0.651333	0.035863	-0.0328766
0.6515	0.0370017	-0.0394468
0.651667	0.037775	-0.0471413
0.651833	0.0389198	-0.0564769
0.652	0.0400147	-0.0673102
0.652167	0.0402176	-0.0784176
0.652333	0.03955	-0.0888515
0.6525	0.0383841	-0.0982174
0.652667	0.0369615	-0.106312
0.652833	0.0357339	-0.113063
0.653	0.0350239	-0.118434
0.653167	0.0345621	-0.122478
0.653333	0.0342414	-0.12543
0.6535	0.0342759	-0.127446
0.653667	0.0340328	-0.128362
0.653833	0.0324424	-0.12815
0.654	0.0295885	-0.127287
0.654167	0.0264846	-0.126443
0.654333	0.0237577	-0.126004
0.6545	0.0214182	-0.125731
0.654667	0.0193801	-0.125066
0.654833	0.017552	-0.123872
0.655	0.0158461	-0.122569
0.655167	0.0143555	-0.121546
0.655333	0.0130555	-0.120767
0.6555	0.0117552	-0.119943
0.655667	0.0105776	-0.11874
0.655833	0.00962848	-0.116997
0.656	0.00863245	-0.114964
0.656167	0.00756378	-0.113005
0.656333	0.00680402	-0.111135
0.6565	0.00651179	-0.109055
0.656667	0.00651835	-0.106646
0.656833	0.00672213	-0.104189
0.657	0.00727504	-0.101954
0.657167	0.00833838	-0.100046
0.657333	0.00968043	-0.0986125
0.6575	0.0108728	-0.0977634
0.657667	0.0117201	-0.0975106
0.657833	0.01218	-0.0976666
0.658	0.0122442	-0.0979926
0.658167	0.012025	-0.0986588
0.658333	0.0117826	-0.0997348
0.6585	0.0117226	-0.100742
0.658667	0.0117046	-0.101349
0.658833	0.0114147	-0.101625
0.659	0.0108021	-0.101642
0.659167	0.00994606	-0.101254
0.659333	0.00889838	-0.10025
0.6595	0.00802036	-0.0987358
0.659667	0.0076649	-0.0971142
0.659833	0.00757505	-0.0954069
0.66	0.00728277	-0.0930708
0.660167	0.00661449	-0.0896672
0.660333	0.00564843	-0.0848044
0.6605	0.00453225	-0.0777969
0.660667	0.00332364	-0.0683527
0.660833	0.00211609	-0.056891
0.661	0.00114104	-0.0437875
0.661167	0.000552781	-0.0291578
0.661333	0.000265953	-0.0135722
0.6615	7.29013E-005	0.00159503
0.661667	-1.60119E-006	0.0147668
0.661833	0.000281703	0.0247796
0.662	0.000833001	0.0309815
0.662167	0.00138317	0.0331625
0.662333	0.00187617	0.0314989
0.6625	0.00207226	0.026633
0.662667	0.00169447	0.0195038
0.662833	0.000972854	0.0108889
0.663	0.000395154	0.00129632
0.663167	0.000207436	-0.0087043
0.663333	0.000321667	-0.0179916
0.6635	0.00070004	-0.0246291
0.663667	0.00138289	-0.0260614
0.663833	0.00207744	-0.0198547
0.664	0.00247243	-0.00457137
0.664167	0.00260067	0.0195708
0.664333	0.00248625	0.0500228
0.6645	0.00202316	0.0822345
0.664667	0.00118367	0.11151
0.664833	1.08757E-005	0.134228
0.665	-0.00171047	0.147686
0.665167	-0.00439303	0.150379
0.665333	-0.00806491	0.142931
0.6655	-0.0121927	0.127758
0.665667	-0.0160852	0.107372
0.665833	-0.0195386	0.0838402
0.666	-0.0227885	0.0592992
0.666167	-0.0255609	0.0356533
0.666333	-0.0272529	0.0139415
0.6665	-0.0280732	-0.00565607
0.666667	-0.0285076	-0.0230773
0.666833	-0.0285431	-0.0380466
0.667	-0.0283016	-0.0504002
0.667167	-0.0280612	-0.060078
0.667333	-0.0276018	-0.0673603
0.6675	-0.0266772	-0.0730239
0.667667	-0.0256941	-0.0776174
0.667833	-0.0250221	-0.0812598
0.668	-0.0244259	-0.0841835
0.668167	-0.0236135	-0.0866811
0.668333	-0.022783	-0.0888458
0.6685	-0.0222527	-0.0907334
0.668667	-0.0219637	-0.092402
0.668833	-0.0218158	-0.0939064
0.669	-0.0218071	-0.095436
0.669167	-0.0216862	-0.0970672
0.669333	-0.0212026	-0.0986203
0.6695	-0.0205437	-0.100041
0.669667	-0.0198988	-0.101331
0.669833	-0.0191677	-0.102359
0.67	-0.0182745	-0.103144
0.670167	-0.0174227	-0.103708
0.670333	-0.0169845	-0.10386
0.6705	-0.0166935	-0.103447
0.670667	-0.0159136	-0.102478
0.670833	-0.0147664	-0.101046
0.671	-0.0136106	-0.0993037
0.671167	-0.0126279	-0.0973984
0.671333	-0.0120251	-0.0953821
0.6715	-0.0114571	-0.0932666
0.671667	-0.0105585	-0.0912451
0.671833	-0.00982055	-0.0895935
0.672	-0.00966155	-0.0881768
0.672167	-0.009856	-0.0866876
0.672333	-0.0103718	-0.0852286
0.6725	-0.01123	-0.0838755
0.672667	-0.012055	-0.0824171
0.672833	-0.0129027	-0.0808122
0.673	-0.0141137	-0.0791319
0.673167	-0.015399	-0.0772564
0.673333	-0.0163898	-0.0751306
0.6735	-0.0171733	-0.073162
0.673667	-0.0177917	-0.0718263
0.673833	-0.0181074	-0.071108
0.674	-0.0182158	-0.0707636
0.674167	-0.0182807	-0.0706867
0.674333	-0.0180735	-0.0708365
0.6745	-0.0174877	-0.0711075
0.674667	-0.01689	-0.071324
0.674833	-0.0164186	-0.0712309
0.675	-0.0159864	-0.0706034
0.675167	-0.0158468	-0.0695181
0.675333	-0.0161759	-0.0682755
0.6755	-0.0166504	-0.0670932
0.675667	-0.0170573	-0.0661056
0.675833	-0.0176519	-0.065396
0.676	-0.0185274	-0.0648357
0.676167	-0.0192982	-0.0640976
0.676333	-0.0196519	-0.0629062
0.6765	-0.0196361	-0.0611707
0.676667	-0.0194644	-0.0587904
0.676833	-0.0193106	-0.0555443
0.677	-0.0191745	-0.0518321
0.677167	-0.0192446	-0.0495043
0.677333	-0.0201032	-0.0507641
0.6775	-0.021944	-0.0561357
0.677667	-0.0243157	-0.064252
0.677833	-0.0267824	-0.0732927
0.678	-0.0291485	-0.0820773
0.678167	-0.0313949	-0.0899921
0.678333	-0.0335679	-0.0966764
0.6785	-0.0356419	-0.101973
0.678667	-0.0375961	-0.105937
0.678833	-0.0393777	-0.108831
0.679	-0.0408076	-0.110904
0.679167	-0.0418172	-0.112335
0.679333	-0.0425622	-0.113323
0.6795	-0.0432123	-0.113942
0.679667	-0.0438229	-0.114177
0.679833	-0.0443347	-0.114171
0.68	-0.0446929	-0.114195
0.680167	-0.0447277	-0.114384
0.680333	-0.0441846	-0.114607
0.6805	-0.0431491	-0.114749
0.680667	-0.04193	-0.114969
0.680833	-0.040881	-0.115472
0.681	-0.040387	-0.116233
0.681167	-0.04035	-0.117104
0.681333	-0.0402718	-0.118006
0.6815	-0.0400387	-0.118905
0.681667	-0.0398598	-0.119693
0.681833	-0.0397424	-0.120199
0.682	-0.0394408	-0.120362
0.682167	-0.03888	-0.120254
0.682333	-0.038302	-0.119926
0.6825	-0.0376922	-0.119361
0.682667	-0.0368351	-0.118609
0.682833	-0.0359311	-0.117885
0.683	-0.0354191	-0.117474
0.683167	-0.0354263	-0.117574
0.683333	-0.0357659	-0.118189
0.6835	-0.0363282	-0.119079
0.683667	-0.0372149	-0.119707
0.683833	-0.0384652	-0.11952
0.684	-0.0398727	-0.118509
0.684167	-0.041176	-0.11719
0.684333	-0.0420076	-0.116074
0.6845	-0.0421511	-0.115375
0.684667	-0.0419521	-0.11506
0.684833	-0.0417517	-0.115041
0.685	-0.0416952	-0.115336
0.685167	-0.0418826	-0.116017
0.685333	-0.0420398	-0.117014
0.6855	-0.0418034	-0.118059
0.685667	-0.0412722	-0.118929
0.685833	-0.0407296	-0.119605
0.686	-0.0401802	-0.120027
0.686167	-0.0396585	-0.120034
0.686333	-0.0394047	-0.119631
0.6865	-0.0394657	-0.118975
0.686667	-0.0397483	-0.118232
0.686833	-0.0402421	-0.117538
0.687	-0.0408808	-0.116917
0.687167	-0.0414324	-0.116405
0.687333	-0.041798	-0.116067
0.6875	-0.0422356	-0.115762
0.687667	-0.0428007	-0.11527
0.687833	-0.0431079	-0.114717
0.688	-0.0429861	-0.114407
0.688167	-0.0427338	-0.114383
0.688333	-0.0425283	-0.114537
0.6885	-0.042112	-0.114794
0.688667	-0.0414039	-0.114973
0.688833	-0.0407495	-0.114843
0.689	-0.040513	-0.114311
0.689167	-0.0407657	-0.113318
0.689333	-0.0412935	-0.111441
0.6895	-0.0423292	-0.107721
0.689667	-0.0446984	-0.101021
0.689833	-0.0485719	-0.0903556
0.69	-0.0530747	-0.0751727
0.690167	-0.0574475	-0.0557075
0.690333	-0.0613614	-0.0329576
0.6905	-0.0642741	-0.00839654
0.690667	-0.0656735	0.0162908
0.690833	-0.0654384	0.0393946
0.691	-0.0635549	0.0593021
0.691167	-0.0599995	0.0746535
0.691333	-0.0550998	0.0846609
0.6915	-0.0496642	0.0892912
0.691667	-0.0444564	0.0888814
0.691833	-0.0395801	0.0837341
0.692	-0.0347259	0.0745033
0.692167	-0.0300613	0.0625435
0.692333	-0.0256233	0.0491384
0.6925	-0.020866	0.0349885
0.692667	-0.0160469	0.020799
0.692833	-0.0118328	0.0073256
0.693	-0.00806946	-0.0050353
0.693167	-0.00442551	-0.016131
0.693333	-0.0010283	-0.0260266
0.6935	0.00177842	-0.034897
0.693667	0.00390132	-0.0428385
0.693833	0.00558061	-0.0500368
0.694	0.00704277	-0.0566704
0.694167	0.00836468	-0.0626787
0.694333	0.00938625	-0.0678708
0.6945	0.00968575	-0.0720732
0.694667	0.00930201	-0.0752115
0.694833	0.00899509	-0.0773356
0.695	0.00939337	-0.0785713
0.695167	0.0105122	-0.0790888
0.695333	0.0120033	-0.0789817
0.6955	0.0134049	-0.0782435
0.695667	0.0143485	-0.0768352
0.695833	0.0148674	-0.0746689
0.696	0.0149558	-0.0718902
0.696167	0.0143137	-0.0689605
0.696333	0.0130033	-0.0660956
0.6965	0.0112961	-0.0631531
0.696667	0.00942869	-0.0602073
0.696833	0.00782302	-0.0576185
0.697	0.0066429	-0.0555954
0.697167	0.00565276	-0.0541956
0.697333	0.00465561	-0.0535102
0.6975	0.00361763	-0.05362
0.697667	0.00261233	-0.0545742
0.697833	0.00170874	-0.0562812
0.698	0.000832643	-0.0584749
0.698167	-0.000231233	-0.0607983
0.698333	-0.00158135	-0.0628896
0.6985	-0.0026695	-0.0647131
0.698667	-0.00230713	-0.0664144
0.698833	4.73031E-005	-0.0679191
0.699	0.00353301	-0.0692075
0.699167	0.00720068	-0.0704315
0.699333	0.0109784	-0.0715831
0.6995	0.0147808	-0.0725592
0.699667	0.0180482	-0.073479
0.699833	0.0204712	-0.0744911
0.7	0.0221763	-0.075475
0.700167	0.0232473	-0.0762576
0.700333	0.0237889	-0.0768359
0.7005	0.0241619	-0.0773349
0.700667	0.0244765	-0.0779145
0.700833	0.0244588	-0.0785789
0.701	0.0240945	-0.0791462
0.701167	0.0237578	-0.0796119
0.701333	0.0237723	-0.0801588
0.7015	0.0241826	-0.0807752
0.701667	0.0248197	-0.0813376
0.701833	0.0254286	-0.0818385
0.702	0.0258418	-0.082315
0.702167	0.0260595	-0.082805
0.702333	0.0261589	-0.0833009
0.7025	0.0260212	-0.083669
0.702667	0.0253012	-0.0837906
0.702833	0.0239837	-0.08372
0.703	0.0225114	-0.0834948
0.703167	0.0213217	-0.083011
0.703333	0.0206785	-0.0821734
0.7035	0.0206825	-0.0809617
0.703667	0.0212606	-0.0796503
0.703833	0.0223015	-0.0787297
0.704	0.0239477	-0.0781459
0.704167	0.026475	-0.077255
0.704333	0.0292786	-0.0756442
0.7045	0.0309309	-0.0734499
0.704667	0.0311545	-0.0711067
0.704833	0.030977	-0.0690462
0.705	0.0308202	-0.0673999
0.705167	0.0304134	-0.0659064
0.705333	0.0298115	-0.0642693
0.7055	0.0293413	-0.0625857
0.705667	0.0291404	-0.0611302
0.705833	0.0289996	-0.0599623
0.706	0.0287309	-0.0590728
0.706167	0.0284876	-0.0584945
0.706333	0.0284273	-0.0582603
0.7065	0.0284584	-0.0584311
0.706667	0.0285396	-0.0588846
0.706833	0.0288793	-0.0593299
0.707	0.0295597	-0.0596482
0.707167	0.0304836	-0.0598657
0.707333	0.0317162	-0.0599398
0.7075	0.0332317	-0.0598056
0.707667	0.0347455	-0.0594506
0.707833	0.035959	-0.0588232
0.708	0.0367597	-0.0579366
0.708167	0.0373233	-0.0569734
0.708333	0.0376652	-0.0560507
0.7085	0.0374818	-0.0551668
0.708667	0.0367987	-0.0543421
0.708833	0.0358744	-0.0535234
0.709	0.0346368	-0.0526335
0.709167	0.0330955	-0.0518429
0.709333	0.0317406	-0.0513756
0.7095	0.0310431	-0.0511778
0.709667	0.031099	-0.0510521
0.709833	0.031652	-0.0508358
0.71	0.0323568	-0.0505051
0.710167	0.0331636	-0.0502319
0.710333	0.0340814	-0.0501952
0.7105	0.0348923	-0.0503989
0.710667	0.0354226	-0.0506853
0.710833	0.0356873	-0.0508791
0.711	0.0357482	-0.0508877
0.711167	0.0355938	-0.05074
0.711333	0.0352771	-0.050553
0.7115	0.0350654	-0.0502945
0.711667	0.0350853	-0.04987
0.711833	0.0352337	-0.0494466
0.712	0.0356364	-0.0491561
0.712167	0.0365009	-0.0488392
0.712333	0.0375368	-0.0483961
0.7125	0.0381399	-0.0479689
0.712667	0.0381043	-0.0477639
0.712833	0.0376069	-0.0478344
0.713	0.0367674	-0.0480085
0.713167	0.0358557	-0.0479224
0.713333	0.0355102	-0.047131
0.7135	0.0361624	-0.0454114
0.713667	0.0375797	-0.0429161
0.713833	0.0392697	-0.0399828
0.714	0.0408884	-0.0369184
0.714167	0.0422824	-0.0339425
0.714333	0.0434448	-0.0312993
0.7145	0.0441691	-0.0291369
0.714667	0.0440948	-0.0273891
0.714833	0.043269	-0.0260476
0.715	0.0418192	-0.0251726
0.715167	0.0394116	-0.0248017
0.715333	0.0358539	-0.0248944
0.7155	0.0315623	-0.0250929
0.715667	0.0271205	-0.0249757
0.715833	0.0229513	-0.0245674
0.716	0.0193409	-0.0242319
0.716167	0.0164341	-0.024154
0.716333	0.0141813	-0.0242046
0.7165	0.0124432	-0.0241374
0.716667	0.0110031	-0.0236569
0.716833	0.00948372	-0.0225944
0.717	0.00775975	-0.0211767
0.717167	0.00625757	-0.0197431
0.717333	0.00547182	-0.0183041
0.7175	0.00542317	-0.0169099
0.717667	0.00568564	-0.0157912
0.717833	0.0058814	-0.0148287
