0.00966667	0.00285386	-0.0447478
0.00983333	0.00415155	-0.0444739
0.01	0.00607214	-0.0441086
0.0101667	0.00806633	-0.0435058
0.0103333	0.00971461	-0.0425662
0.0105	0.0107696	-0.0413757
0.0106667	0.011292	-0.0401261
0.0108333	0.0116147	-0.0390431
0.011	0.0116303	-0.0383257
0.0111667	0.0111288	-0.037839
0.0113333	0.0104955	-0.0372267
0.0115	0.010043	-0.0362032
0.0116667	0.00963241	-0.0346243
0.0118333	0.00896919	-0.0327057
0.012	0.00776207	-0.0309931
0.0121667	0.00589248	-0.0295931
0.0123333	0.00347856	-0.0280892
0.0125	0.000909483	-0.0266824
0.0126667	-0.00140564	-0.025978
0.0128333	-0.00333515	-0.0258664
0.013	-0.00470914	-0.0258498
0.0131667	-0.0052549	-0.0257606
0.0133333	-0.00515212	-0.0258097
0.0135	-0.00485007	-0.026011
0.0136667	-0.00434029	-0.025926
0.0138333	-0.00357891	-0.0254804
0.014	-0.00309118	-0.0249864
0.0141667	-0.00329005	-0.0244826
0.0143333	-0.00399906	-0.0239947
0.0145	-0.00484958	-0.0236236
0.0146667	-0.00567348	-0.023259
0.0148333	-0.00681864	-0.0227074
0.015	-0.00854361	-0.0219208
0.0151667	-0.0101648	-0.020875
0.0153333	-0.0110253	-0.0195939
0.0155	-0.0113105	-0.0184853
0.0156667	-0.0113141	-0.0178706
0.0158333	-0.0110204	-0.0175792
0.016	-0.0103574	-0.0174082
0.0161667	-0.00954151	-0.0173771
0.0163333	-0.00896883	-0.0176283
0.0165	-0.00885557	-0.0181996
0.0166667	-0.00926667	-0.0190285
0.0168333	-0.0101404	-0.0201581
0.017	-0.0114244	-0.0214329
0.0171667	-0.0131565	-0.0225021
0.0173333	-0.0151349	-0.0234701
0.0175	-0.0170326	-0.0245344
0.0176667	-0.018579	-0.0254157
0.0178333	-0.0194879	-0.025833
0.018	-0.019774	-0.025766
0.0181667	-0.0197418	-0.025216
0.0183333	-0.0196001	-0.0242841
0.0185	-0.0195465	-0.0233537
0.0186667	-0.0198787	-0.022689
0.0188333	-0.020597	-0.0222419
0.019	-0.0213214	-0.02205
0.0191667	-0.0218383	-0.0219575
0.0193333	-0.0223215	-0.021452
0.0195	-0.022965	-0.0205077
0.0196667	-0.023635	-0.0193947
0.0198333	-0.0240783	-0.0180545
0.02	-0.0243772	-0.0165598
0.0201667	-0.0248171	-0.0151351
0.0203333	-0.0255632	-0.0139801
0.0205	-0.0267461	-0.0134157
0.0206667	-0.0283042	-0.0136614
0.0208333	-0.0298366	-0.0145541
0.021	-0.0310334	-0.0156735
0.0211667	-0.0318821	-0.0166828
0.0213333	-0.0323658	-0.0171913
0.0215	-0.0323743	-0.0167553
0.0216667	-0.0319977	-0.0154362
0.0218333	-0.0316066	-0.0136628
0.022	-0.0314522	-0.0117957
0.0221667	-0.0314252	-0.0102146
0.0223333	-0.0315188	-0.00923197
0.0225	-0.0321174	-0.00888982
0.0226667	-0.0334699	-0.00901042
0.0228333	-0.0353074	-0.00925262
0.023	-0.0371981	-0.0093511
0.0231667	-0.0390139	-0.00939239
0.0233333	-0.040832	-0.00944272
0.0235	-0.0425728	-0.00935385
0.0236667	-0.0439221	-0.00918284
0.0238333	-0.0446912	-0.00898516
0.024	-0.0450326	-0.00864528
0.0241667	-0.0449558	-0.00830894
0.0243333	-0.0442983	-0.00811219
0.0245	-0.0431986	-0.00784917
0.0246667	-0.0420079	-0.00743608
0.0248333	-0.0411058	-0.00704572
0.025	-0.0408043	-0.00664002
0.0251667	-0.0411514	-0.00610998
0.0253333	-0.0419478	-0.00562245
0.0255	-0.0428518	-0.00509103
0.0256667	-0.0435746	-0.00417578
0.0258333	-0.0440495	-0.00289791
0.026	-0.0441741	-0.00145336
0.0261667	-0.0439108	-2.41036E-005
0.0263333	-0.0435364	0.00113345
0.0265	-0.0431758	0.00190732
0.0266667	-0.0428471	0.00225039
0.0268333	-0.0428532	0.00208125
0.027	-0.0433064	0.00172592
0.0271667	-0.0438629	0.00159842
0.0273333	-0.0442081	0.00152308
0.0275	-0.0443654	0.00132177
0.0276667	-0.0445612	0.00127035
0.0278333	-0.0451277	0.00155209
0.028	-0.0464194	0.00200033
0.0281667	-0.0484587	0.00230483
0.0283333	-0.0508504	0.00218626
0.0285	-0.0531043	0.00155461
0.0286667	-0.0548926	0.000522081
0.0288333	-0.0561039	-0.000758132
0.029	-0.0568294	-0.00200854
0.0291667	-0.0573874	-0.00276554
0.0293333	-0.0580873	-0.00266725
0.0295	-0.0588527	-0.00180159
0.0296667	-0.0594882	-0.000709464
0.0298333	-0.0601426	0.000158232
0.03	-0.0610017	0.000781655
0.0301667	-0.0620333	0.00129027
0.0303333	-0.0632644	0.00175796
0.0305	-0.06469	0.00248665
0.0306667	-0.0660461	0.00397996
0.0308333	-0.0669361	0.00622979
0.031	-0.0669715	0.00861244
0.0311667	-0.0660945	0.0104721
0.0313333	-0.0648805	0.0115344
0.0315	-0.063885	0.0119817
0.0316667	-0.0629563	0.0121334
0.0318333	-0.0618264	0.0123101
0.032	-0.060548	0.0126665
0.0321667	-0.0592585	0.0129255
0.0323333	-0.0581514	0.0127214
0.0325	-0.0573789	0.0120159
0.0326667	-0.0570546	0.0110334
0.0328333	-0.0572522	0.00996437
0.033	-0.0578912	0.00890123
0.0331667	-0.0587436	0.00798243
0.0333333	-0.0593946	0.00732807
0.0335	-0.0596681	0.00707359
0.0336667	-0.0598981	0.00737179
0.0338333	-0.0601309	0.00811081
0.034	-0.0598931	0.00907927
0.0341667	-0.0591276	0.0101722
0.0343333	-0.058416	0.0110979
0.0345	-0.0581394	0.011462
0.0346667	-0.0581824	0.0113201
0.0348333	-0.0583779	0.0109572
0.035	-0.0586676	0.0103959
0.0351667	-0.0591724	0.0097033
0.0353333	-0.060136	0.00898224
0.0355	-0.0617271	0.00804955
0.0356667	-0.0640219	0.00680477
0.0358333	-0.0668594	0.0055763
0.036	-0.0699334	0.00472663
0.0361667	-0.0729122	0.00424331
0.0363333	-0.0754128	0.0038499
0.0365	-0.0773508	0.003368
0.0366667	-0.0788336	0.00303968
0.0368333	-0.0797276	0.00334492
0.037	-0.0791916	0.00447934
0.0371667	-0.0750359	0.00637922
0.0373333	-0.0649763	0.00914445
0.0375	-0.0488008	0.012886
0.0376667	-0.0285069	0.017327
0.0378333	-0.00714101	0.0218659
0.038	0.0127304	0.0257844
0.0381667	0.0298447	0.0285672
0.0383333	0.0436874	0.0303369
0.0385	0.0541729	0.0316212
0.0386667	0.0616325	0.0324726
0.0388333	0.0664603	0.0324264
0.039	0.0690409	0.0313793
0.0391667	0.0697892	0.0297437
0.0393333	0.069143	0.0276722
0.0395	0.0675502	0.0247643
0.0396667	0.0653189	0.0209653
0.0398333	0.0629004	0.0171696
0.04	0.0610647	0.0143061
0.0401667	0.0601363	0.0124482
0.0403333	0.0596315	0.0112618
0.0405	0.0592061	0.0105831
0.0406667	0.0589208	0.010125
0.0408333	0.0586197	0.00934273
0.041	0.0585593	0.00803537
0.0411667	0.0595591	0.00661888
0.0413333	0.061704	0.00539328
0.0415	0.0642086	0.00414953
0.0416667	0.0663751	0.00292663
0.0418333	0.067979	0.00212792
0.042	0.0688849	0.00206377
0.0421667	0.0689273	0.00283132
0.0423333	0.068204	0.00388672
0.0425	0.066772	0.00449036
0.0426667	0.0645409	0.00464547
0.0428333	0.0617744	0.00456175
0.043	0.0591501	0.00411097
0.0431667	0.0572386	0.00328939
0.0433333	0.0559807	0.00249827
0.0435	0.0549794	0.00203537
0.0436667	0.054076	0.00136051
0.0438333	0.0532528	-0.000211219
0.044	0.0525104	-0.00217669
0.0441667	0.0520081	-0.00348294
0.0443333	0.0518412	-0.00396118
0.0445	0.0519395	-0.00418257
0.0446667	0.0524146	-0.00449112
0.0448333	0.053283	-0.00472046
0.045	0.0540888	-0.00477026
0.0451667	0.054563	-0.00484188
0.0453333	0.0550438	-0.00492175
0.0455	0.0557905	-0.00488403
0.0456667	0.0565681	-0.00479233
0.0458333	0.0571621	-0.00456919
0.046	0.057609	-0.00408968
0.0461667	0.0578092	-0.00351492
0.0463333	0.0576513	-0.00313977
0.0465	0.0573868	-0.00324758
0.0466667	0.0572405	-0.00395677
0.0468333	0.0571022	-0.0051111
0.047	0.0569494	-0.00646431
0.0471667	0.056959	-0.0075912
0.0473333	0.0570659	-0.00806568
0.0475	0.0570059	-0.00797944
0.0476667	0.0569111	-0.00754668
0.0478333	0.0571877	-0.00677936
0.048	0.0578151	-0.00584073
0.0481667	0.0582494	-0.00495959
0.0483333	0.0579427	-0.00413705
0.0485	0.0568729	-0.00346109
0.0486667	0.0554425	-0.00341759
0.0488333	0.0539202	-0.00405899
0.049	0.0522898	-0.00488584
0.0491667	0.050531	-0.00594907
0.0493333	0.0486473	-0.00736653
0.0495	0.0466202	-0.00865214
0.0496667	0.0446641	-0.00951703
0.0498333	0.0430148	-0.0100059
0.05	0.0415599	-0.010012
0.0501667	0.0404386	-0.00951197
0.0503333	0.0402401	-0.0088562
0.0505	0.0409805	-0.00852097
0.0506667	0.0420918	-0.00874305
0.0508333	0.0432292	-0.00939663
0.051	0.044151	-0.010109
0.0511667	0.0447134	-0.0106179
0.0513333	0.0450062	-0.0111025
0.0515	0.0450659	-0.0118514
0.0516667	0.0449222	-0.0127954
0.0518333	0.044678	-0.0138745
0.052	0.0445116	-0.0152538
0.0521667	0.0444881	-0.0166965
0.0523333	0.0442394	-0.0176901
0.0525	0.0434005	-0.0181687
0.0526667	0.0419502	-0.0184074
0.0528333	0.039973	-0.0186507
0.053	0.037639	-0.0188163
0.0531667	0.0351718	-0.018704
0.0533333	0.0327866	-0.0185637
0.0535	0.0308602	-0.0186372
0.0536667	0.0299282	-0.01875
0.0538333	0.0301562	-0.018781
0.054	0.030926	-0.0187079
0.0541667	0.0315278	-0.0183839
0.0543333	0.0320532	-0.0177535
0.0545	0.0327939	-0.0170079
0.0546667	0.0334292	-0.0165056
0.0548333	0.0337315	-0.0166288
0.055	0.0340042	-0.0172781
0.0551667	0.0344261	-0.0179245
0.0553333	0.035014	-0.0184803
0.0555	0.0358817	-0.0192277
0.0556667	0.036994	-0.0201481
0.0558333	0.0381983	-0.0210198
0.056	0.0392668	-0.0217963
0.0561667	0.0398192	-0.0224862
0.0563333	0.0396837	-0.022869
0.0565	0.0390075	-0.0228586
0.0566667	0.0379531	-0.0227195
0.0568333	0.0367165	-0.02246
0.057	0.0356093	-0.0218131
0.0571667	0.0348579	-0.020884
0.0573333	0.0344932	-0.0200018
0.0575	0.0343322	-0.0191714
0.0576667	0.0342105	-0.0183124
0.0578333	0.0342465	-0.0175774
0.058	0.0345584	-0.0169505
0.0581667	0.0350834	-0.0159958
0.0583333	0.035703	-0.014454
0.0585	0.0361864	-0.0128496
0.0586667	0.0362861	-0.011763
0.0588333	0.0360032	-0.0110037
0.059	0.0356078	-0.0103377
0.0591667	0.0355766	-0.0100362
0.0593333	0.0360634	-0.0104156
0.0595	0.0365736	-0.0114708
0.0596667	0.0367943	-0.0127338
0.0598333	0.0368422	-0.0137466
0.06	0.0368859	-0.0147443
0.0601667	0.0372725	-0.0160568
0.0603333	0.0381179	-0.0175024
0.0605	0.0389565	-0.0190828
0.0606667	0.0394231	-0.0209597
0.0608333	0.0394605	-0.0228883
0.061	0.0388887	-0.0247073
0.0611667	0.0375615	-0.0264693
0.0613333	0.0356909	-0.0280471
0.0615	0.033659	-0.0293738
0.0616667	0.031699	-0.0306475
0.0618333	0.029955	-0.0319381
0.062	0.0286733	-0.0329151
0.0621667	0.0278769	-0.0333491
0.0623333	0.0272474	-0.0335287
0.0625	0.0267386	-0.0337636
0.0626667	0.0264769	-0.0340334
0.0628333	0.026174	-0.034255
0.063	0.0254522	-0.0344217
0.0631667	0.0244034	-0.0345092
0.0633333	0.0236213	-0.0343672
0.0635	0.0236247	-0.0340098
0.0636667	0.02415	-0.0336717
0.0638333	0.0245326	-0.033324
0.064	0.0245661	-0.0329001
0.0641667	0.0245203	-0.0326453
0.0643333	0.0246478	-0.0327829
0.0645	0.0248396	-0.0333081
0.0646667	0.0247445	-0.0341624
0.0648333	0.0241973	-0.0353674
0.065	0.0233183	-0.0367434
0.0651667	0.0221378	-0.0380206
0.0653333	0.0205524	-0.0392604
0.0655	0.0185895	-0.0404564
0.0656667	0.016395	-0.0413995
0.0658333	0.0142897	-0.0420188
0.066	0.0125332	-0.0423868
0.0661667	0.011166	-0.0425519
0.0663333	0.0104403	-0.0424878
0.0665	0.0105642	-0.0422758
0.0666667	0.0113701	-0.0418816
0.0668333	0.0126468	-0.0411511
0.067	0.0140859	-0.04019
0.0671667	0.015336	-0.0391276
0.0673333	0.0164685	-0.037914
0.0675	0.0178515	-0.0366396
0.0676667	0.0195169	-0.0356124
0.0678333	0.0210212	-0.0349796
0.068	0.0220072	-0.0346382
0.0681667	0.0225755	-0.0343824
0.0683333	0.0230815	-0.0342082
0.0685	0.0237091	-0.034511
0.0686667	0.0243093	-0.0354998
0.0688333	0.02458	-0.0368491
0.069	0.0240354	-0.0382171
0.0691667	0.0223254	-0.0394687
0.0693333	0.0197969	-0.0403675
0.0695	0.0170876	-0.0407287
0.0696667	0.0146271	-0.0406243
0.0698333	0.012579	-0.0402357
0.07	0.0107024	-0.0397697
0.0701667	0.00860857	-0.039316
0.0703333	0.00629231	-0.0390782
0.0705	0.00413593	-0.0393841
0.0706667	0.00227982	-0.0398547
0.0708333	0.00053862	-0.0395536
0.071	-0.000903219	-0.0381872
0.0711667	-0.00158372	-0.036229
0.0713333	-0.00150066	-0.0341957
0.0715	-0.00118588	-0.0324982
0.0716667	-0.00102359	-0.0315569
0.0718333	-0.00097211	-0.0315256
0.072	-0.00116132	-0.0322641
0.0721667	-0.00179612	-0.0336761
0.0723333	-0.00252472	-0.0358234
0.0725	-0.00281368	-0.0389254
0.0726667	-0.00230718	-0.0430156
0.0728333	-0.00100028	-0.0475092
0.073	0.000426894	-0.0517288
0.0731667	0.00136301	-0.0562182
0.0733333	0.00183548	-0.0626589
0.0735	0.00199102	-0.0722546
0.0736667	0.00181439	-0.0851374
0.0738333	0.00116925	-0.100895
0.074	-4.32278E-005	-0.119002
0.0741667	-0.00169987	-0.138565
0.0743333	-0.00362472	-0.158372
0.0745	-0.0057018	-0.177799
0.0746667	-0.00760544	-0.196708
0.0748333	-0.00907947	-0.214459
0.075	-0.0103741	-0.230109
0.0751667	-0.0115293	-0.243473
0.0753333	-0.0121162	-0.254708
0.0755	-0.012316	-0.263129
0.0756667	-0.0128767	-0.267961
0.0758333	-0.0139363	-0.269973
0.076	-0.015004	-0.270702
0.0761667	-0.0157214	-0.270703
0.0763333	-0.0159421	-0.269906
0.0765	-0.0156181	-0.268477
0.0766667	-0.0150505	-0.26682
0.0768333	-0.0146113	-0.265209
0.077	-0.0141978	-0.2636
0.0771667	-0.0134969	-0.261966
0.0773333	-0.0125025	-0.260443
0.0775	-0.0115346	-0.258904
0.0776667	-0.0108944	-0.256958
0.0778333	-0.0105463	-0.254576
0.078	-0.010052	-0.252027
0.0781667	-0.00911754	-0.2492
0.0783333	-0.00815354	-0.245694
0.0785	-0.00762193	-0.241348
0.0786667	-0.00748997	-0.236363
0.0788333	-0.00753913	-0.231034
0.079	-0.0076637	-0.225506
0.0791667	-0.00794922	-0.219426
0.0793333	-0.0081863	-0.211922
0.0795	-0.00793814	-0.202583
0.0796667	-0.00737421	-0.191694
0.0798333	-0.00701466	-0.179597
0.08	-0.00702346	-0.166629
0.0801667	-0.00742099	-0.153183
0.0803333	-0.00812169	-0.139774
0.0805	-0.00864795	-0.127154
0.0806667	-0.00860944	-0.115931
0.0808333	-0.0081628	-0.10642
0.081	-0.00760676	-0.0988752
0.0811667	-0.00694554	-0.0933196
0.0813333	-0.0061658	-0.0896025
0.0815	-0.00545237	-0.0878166
0.0816667	-0.00488167	-0.0879337
0.0818333	-0.00441158	-0.0895007
0.082	-0.00411732	-0.092025
0.0821667	-0.00412493	-0.0950032
0.0823333	-0.00454616	-0.0979415
0.0825	-0.00551139	-0.100636
0.0826667	-0.00686438	-0.10313
0.0828333	-0.00815512	-0.10551
0.083	-0.00921644	-0.10771
0.0831667	-0.0100331	-0.109644
0.0833333	-0.0104067	-0.111189
0.0835	-0.0103435	-0.112
0.0836667	-0.0102381	-0.112177
0.0838333	-0.0104513	-0.112522
0.084	-0.0109129	-0.11332
0.0841667	-0.011411	-0.113848
0.0843333	-0.0119353	-0.113554
0.0845	-0.0124405	-0.11275
0.0846667	-0.0127518	-0.111997
0.0848333	-0.0126564	-0.111538
0.085	-0.0119095	-0.111478
0.0851667	-0.0105964	-0.111787
0.0853333	-0.00932593	-0.112119
0.0855	-0.00854036	-0.112236
0.0856667	-0.00807985	-0.112262
0.0858333	-0.00775446	-0.112263
0.086	-0.0469971	0.0918579
0.0861667	-0.0466845	0.0917292
0.0863333	-0.0456327	0.0912586
0.0865	-0.0442098	0.0905453
0.0866667	-0.0429451	0.0897459
0.0868333	-0.0416015	0.0885142
0.087	-0.0399413	0.086804
0.0871667	-0.0380032	0.0853225
0.0873333	-0.0359506	0.0841804
0.0875	-0.0345839	0.0828328
0.0876667	-0.0346617	0.0812043
0.0878333	-0.0357944	0.0794039
0.088	-0.0371388	0.0776501
0.0881667	-0.0383578	0.076637
0.0883333	-0.0394536	0.0765482
0.0885	-0.0403884	0.0765811
0.0886667	-0.0411817	0.0761685
0.0888333	-0.0420106	0.0753869
0.089	-0.0427588	0.0743395
0.0891667	-0.0430582	0.0732426
0.0893333	-0.0428801	0.0723675
0.0895	-0.0424287	0.0718091
0.0896667	-0.0419361	0.0714497
0.0898333	-0.0416897	0.0707013
0.09	-0.0415536	0.0691752
0.0901667	-0.0410148	0.06723
0.0903333	-0.0401754	0.065301
0.0905	-0.0395784	0.0635681
0.0906667	-0.0393134	0.0621613
0.0908333	-0.0392581	0.0608806
0.091	-0.0391702	0.058895
0.0911667	-0.0385597	0.0557833
0.0913333	-0.0374547	0.052279
0.0915	-0.0363727	0.0492029
0.0916667	-0.0353494	0.0468324
0.0918333	-0.0342253	0.0450986
0.092	-0.033415	0.0435876
0.0921667	-0.0334593	0.0419486
0.0923333	-0.0343055	0.0402857
0.0925	-0.0354755	0.0389433
0.0926667	-0.0365447	0.03819
0.0928333	-0.0372977	0.0380651
0.093	-0.0377753	0.0381386
0.0931667	-0.0381237	0.0378862
0.0933333	-0.0384716	0.0375491
0.0935	-0.0388525	0.0375771
0.0936667	-0.038942	0.0378737
0.0938333	-0.0384943	0.0383433
0.094	-0.0378912	0.0388309
0.0941667	-0.0374698	0.0387455
0.0943333	-0.0370701	0.0379807
0.0945	-0.0365448	0.0373197
0.0946667	-0.0360241	0.0372933
0.0948333	-0.0358055	0.0377003
0.095	-0.0359331	0.0383221
0.0951667	-0.0358496	0.0390806
0.0953333	-0.0349325	0.0398475
0.0955	-0.0332482	0.0406195
0.0956667	-0.0312193	0.0413634
0.0958333	-0.0290283	0.0420172
0.096	-0.0268541	0.0425239
0.0961667	-0.0249145	0.0428712
0.0963333	-0.0232136	0.0437256
0.0965	-0.0211345	0.0457989
0.0966667	-0.0166692	0.0484383
0.0968333	-0.00725094	0.0506832
0.097	0.00779249	0.0530402
0.0971667	0.0266446	0.0562605
0.0973333	0.0468047	0.0596776
0.0975	0.0664355	0.0623887
0.0976667	0.0842602	0.0645395
0.0978333	0.0993599	0.0663483
0.098	0.111517	0.0676576
0.0981667	0.121075	0.0688233
0.0983333	0.128302	0.0701894
0.0985	0.133373	0.0714762
0.0986667	0.136766	0.0727068
0.0988333	0.139165	0.0742745
0.099	0.140911	0.0759937
0.0991667	0.141829	0.0772796
0.0993333	0.141793	0.0780742
0.0995	0.141257	0.0787104
0.0996667	0.140777	0.0791756
0.0998333	0.140522	0.0794079
0.1	0.140519	0.0796806
0.100167	0.140647	0.080184
0.100333	0.140873	0.0807276
0.1005	0.141322	0.0809284
0.100667	0.141638	0.0807278
0.100833	0.141372	0.0803288
0.101	0.140736	0.0798223
0.101167	0.140134	0.0792324
0.101333	0.139608	0.0785568
0.1015	0.138874	0.0780705
0.101667	0.137641	0.0781736
0.101833	0.135833	0.0786158
0.102	0.133543	0.0790009
0.102167	0.131177	0.0795269
0.102333	0.129253	0.0801622
0.1025	0.128007	0.0803815
0.102667	0.127435	0.0801569
0.102833	0.127311	0.080052
0.103	0.127338	0.0803079
0.103167	0.127423	0.0807931
0.103333	0.127519	0.0817603
0.1035	0.127694	0.0833878
0.103667	0.128293	0.085069
0.103833	0.129219	0.0861655
0.104	0.129747	0.0867376
0.104167	0.129322	0.0872461
0.104333	0.127811	0.0878753
0.1045	0.125541	0.0883658
0.104667	0.1232	0.0885994
0.104833	0.121222	0.0888822
0.105	0.11947	0.0895906
0.105167	0.117636	0.0906684
0.105333	0.115792	0.0914858
0.1055	0.11417	0.0918315
0.105667	0.11268	0.0923127
0.105833	0.111026	0.0930628
0.106	0.109051	0.0936922
0.106167	0.107022	0.0941753
0.106333	0.105385	0.0944093
0.1065	0.104187	0.094054
0.106667	0.103034	0.0931901
0.106833	0.101637	0.0923514
0.107	0.100243	0.0918596
0.107167	0.0990429	0.0915748
0.107333	0.0977821	0.0915558
0.1075	0.0964977	0.0919111
0.107667	0.0953748	0.0921899
0.107833	0.0942557	0.0920968
0.108	0.0931493	0.0917299
0.108167	0.0922808	0.0911065
0.108333	0.0917818	0.0904239
0.1085	0.0918725	0.0899358
0.108667	0.0926097	0.0895872
0.108833	0.0937085	0.0892519
0.109	0.0949571	0.0890256
0.109167	0.0960788	0.0892489
0.109333	0.0968207	0.089994
0.1095	0.0973269	0.0909218
0.109667	0.097684	0.0918495
0.109833	0.0977883	0.0927944
0.11	0.097581	0.0936684
0.110167	0.097019	0.0943837
0.110333	0.0962317	0.0951238
0.1105	0.0954551	0.0959979
0.110667	0.0947172	0.096704
0.110833	0.0938855	0.0970923
0.111	0.0929686	0.0974786
0.111167	0.0921566	0.0980899
0.111333	0.0915383	0.0986433
0.1115	0.0910816	0.0986553
0.111667	0.0907163	0.0980557
0.111833	0.0903837	0.0972652
0.112	0.0902337	0.096661
0.112167	0.0903047	0.0963044
0.112333	0.0903709	0.0962272
0.1125	0.0904653	0.0964519
0.112667	0.0907726	0.0968459
0.112833	0.0910998	0.0974272
0.113	0.0910885	0.0983517
0.113167	0.0906283	0.0995199
0.113333	0.0896352	0.100683
0.1135	0.0881411	0.101805
0.113667	0.0867522	0.103049
0.113833	0.0861735	0.10453
0.114	0.0865839	0.106287
0.114167	0.0876201	0.108456
0.114333	0.088527	0.111314
0.1145	0.0886346	0.115065
0.114667	0.0877	0.119547
0.114833	0.0858105	0.124395
0.115	0.0835278	0.129334
0.115167	0.0816973	0.134186
0.115333	0.0806471	0.139186
0.1155	0.0802306	0.145443
0.115667	0.0798128	0.154362
0.115833	0.0771109	0.166614
0.116	0.0685219	0.182115
0.116167	0.0517236	0.200256
0.116333	0.0275965	0.219295
0.1165	-0.00036517	0.236277
0.116667	-0.0280065	0.248522
0.116833	-0.0520881	0.254675
0.117	-0.0710023	0.254343
0.117167	-0.0845869	0.247855
0.117333	-0.093368	0.236342
0.1175	-0.0978853	0.221544
0.117667	-0.0987291	0.205111
0.117833	-0.0970512	0.188
0.118	-0.0943629	0.171075
0.118167	-0.0917695	0.155487
0.118333	-0.0893903	0.141807
0.1185	-0.0868983	0.129867
0.118667	-0.0845218	0.119733
0.118833	-0.0823858	0.111938
0.119	-0.0803795	0.106558
0.119167	-0.0789057	0.102951
0.119333	-0.0781123	0.100549
0.1195	-0.0777883	0.0990766
0.119667	-0.078006	0.0982635
0.119833	-0.0786209	0.0977912
0.12	-0.079098	0.0974408
0.120167	-0.0791297	0.0971353
0.120333	-0.0786587	0.0967606
0.1205	-0.0777989	0.0962
0.120667	-0.0769428	0.0954549
0.120833	-0.0764152	0.0946268
0.121	-0.0764777	0.0939101
0.121167	-0.0772201	0.093494
0.121333	-0.0783082	0.0934144
0.1215	-0.0793959	0.0935142
0.121667	-0.0803774	0.0933715
0.121833	-0.081353	0.0924475
0.122	-0.0824241	0.0905634
0.122167	-0.0835441	0.0880863
0.122333	-0.0845686	0.0856975
0.1225	-0.0850695	0.0838269
0.122667	-0.0847594	0.0823102
0.122833	-0.084095	0.0808726
0.123	-0.0835877	0.0796809
0.123167	-0.0832526	0.0792943
0.123333	-0.083067	0.0799575
0.1235	-0.0829739	0.0811733
0.123667	-0.0828372	0.0823088
0.123833	-0.0829594	0.0830073
0.124	-0.0835013	0.0831611
0.124167	-0.0839685	0.0829717
0.124333	-0.0842462	0.0827121
0.1245	-0.0847783	0.0826062
0.124667	-0.0857372	0.0827912
0.124833	-0.0867091	0.0831968
0.125	-0.0870289	0.0837605
0.125167	-0.0865126	0.0843435
0.125333	-0.0854525	0.0846775
0.1255	-0.0840186	0.0847085
0.125667	-0.0822456	0.0843711
0.125833	-0.0802566	0.0836346
0.126	-0.0782153	0.0829771
0.126167	-0.0762187	0.0826682
0.126333	-0.0742823	0.0823994
0.1265	-0.0724299	0.0822942
0.126667	-0.0706514	0.0826825
0.126833	-0.0687874	0.0833927
0.127	-0.0668406	0.0846999
0.127167	-0.0651502	0.0872776
0.127333	-0.0639378	0.0909596
0.1275	-0.0631416	0.0952991
0.127667	-0.0627193	0.100386
0.127833	-0.062644	0.106456
0.128	-0.0626749	0.113455
0.128167	-0.0625569	0.120841
0.128333	-0.0621199	0.127987
0.1285	-0.0609436	0.134853
0.128667	-0.0588482	0.142011
0.128833	-0.0566382	0.149939
0.129	-0.0550715	0.158251
0.129167	-0.0537185	0.16583
0.129333	-0.0522251	0.171968
0.1295	-0.0513744	0.176633
0.129667	-0.0517275	0.17906
0.129833	-0.0528855	0.178098
0.13	-0.0545832	0.174304
0.130167	-0.0568827	0.169097
0.130333	-0.0592977	0.162697
0.1305	-0.061127	0.15444
0.130667	-0.0623909	0.14359
0.130833	-0.0635828	0.129884
0.131	-0.0649331	0.113983
0.131167	-0.0660988	0.0968715
0.131333	-0.0666113	0.0796117
0.1315	-0.0664552	0.0634713
0.131667	-0.0657113	0.0487632
0.131833	-0.064448	0.0348865
0.132	-0.0631185	0.0223329
0.132167	-0.0622885	0.0123779
0.132333	-0.0623665	0.00526894
0.1325	-0.0634373	0.000482804
0.132667	-0.0649913	-0.00250279
0.132833	-0.0664607	-0.00396513
0.133	-0.0677701	-0.0039409
0.133167	-0.0689819	-0.00304493
0.133333	-0.070083	-0.00243412
0.1335	-0.0711716	-0.00235555
0.133667	-0.0723547	-0.00207917
0.133833	-0.073528	-0.00132427
0.134	-0.0743678	-0.000274113
0.134167	-0.0745891	0.00133457
0.134333	-0.0740713	0.00366865
0.1345	-0.072643	0.00592495
0.134667	-0.0701939	0.00742918
0.134833	-0.0669498	0.00887573
0.135	-0.0633524	0.0117319
0.135167	-0.0597131	0.0176161
0.135333	-0.0559777	0.0279053
0.1355	-0.0521253	0.0422704
0.135667	-0.0488811	0.0585
0.135833	-0.0469986	0.0746339
0.136	-0.046018	0.0891713
0.136167	-0.0452655	0.100199
0.136333	-0.0449221	0.106761
0.1365	-0.0451933	0.109392
0.136667	-0.0458615	0.108684
0.136833	-0.0464793	0.104384
0.137	-0.0466229	0.0958208
0.137167	-0.0462548	0.082865
0.137333	-0.0457535	0.06649
0.1375	-0.045587	0.0485146
0.137667	-0.0457407	0.0305277
0.137833	-0.0458298	0.0137517
0.138	-0.0459256	-0.000422124
0.138167	-0.0463795	-0.0109121
0.138333	-0.0469593	-0.0171857
0.1385	-0.0470889	-0.019093
0.138667	-0.0466009	-0.0169745
0.138833	-0.0457007	-0.0114452
0.139	-0.0445963	-0.00321679
0.139167	-0.043419	0.00660259
0.139333	-0.0423324	0.0168496
0.1395	-0.0414586	0.0265783
0.139667	-0.0408223	0.0340654
0.139833	-0.040567	0.0374788
0.14	-0.040736	0.0367306
0.140167	-0.0411205	0.0331102
0.140333	-0.0416799	0.0280489
0.1405	-0.042196	0.0224273
0.140667	-0.0422508	0.0167693
0.140833	-0.0419808	0.0119591
0.141	-0.0415793	0.00867969
0.141167	-0.0411197	0.00674351
0.141333	-0.041058	0.00583039
0.1415	-0.0416427	0.00586123
0.141667	-0.130005	-0.114441
0.141833	-0.12998	-0.114355
0.142	-0.12977	-0.113994
0.142167	-0.129134	-0.113309
0.142333	-0.128023	-0.112408
0.1425	-0.126827	-0.111387
0.142667	-0.126131	-0.110445
0.142833	-0.125977	-0.109836
0.143	-0.125988	-0.109657
0.143167	-0.12598	-0.109877
0.143333	-0.125845	-0.110403
0.1435	-0.125535	-0.111059
0.143667	-0.125327	-0.11161
0.143833	-0.125386	-0.112111
0.144	-0.125341	-0.11292
0.144167	-0.125123	-0.114008
0.144333	-0.12521	-0.114894
0.1445	-0.125553	-0.115457
0.144667	-0.125585	-0.116195
0.144833	-0.125213	-0.117337
0.145	-0.124851	-0.118333
0.145167	-0.124689	-0.118714
0.145333	-0.124547	-0.118732
0.1455	-0.124238	-0.118717
0.145667	-0.123725	-0.118597
0.145833	-0.12311	-0.118389
0.146	-0.122656	-0.118367
0.146167	-0.122545	-0.118656
0.146333	-0.122638	-0.119141
0.1465	-0.122634	-0.11965
0.146667	-0.122175	-0.120134
0.146833	-0.121063	-0.120588
0.147	-0.119518	-0.120808
0.147167	-0.117862	-0.120603
0.147333	-0.116169	-0.120234
0.1475	-0.11443	-0.12017
0.147667	-0.112746	-0.120477
0.147833	-0.111367	-0.120888
0.148	-0.110509	-0.121234
0.148167	-0.109956	-0.12172
0.148333	-0.109293	-0.122629
0.1485	-0.108436	-0.123633
0.148667	-0.10756	-0.124066
0.148833	-0.106821	-0.123907
0.149	-0.106083	-0.123793
0.149167	-0.104994	-0.124249
0.149333	-0.103535	-0.125445
0.1495	-0.102115	-0.127308
0.149667	-0.10106	-0.12962
0.149833	-0.100251	-0.132041
0.15	-0.099377	-0.134092
0.150167	-0.0982675	-0.13571
0.150333	-0.0968511	-0.137491
0.1505	-0.0953332	-0.139698
0.150667	-0.0940378	-0.141929
0.150833	-0.0928173	-0.143842
0.151	-0.0914305	-0.145256
0.151167	-0.0900362	-0.146225
0.151333	-0.0888102	-0.147125
0.1515	-0.0876805	-0.148233
0.151667	-0.0865071	-0.149771
0.151833	-0.0853141	-0.151787
0.152	-0.0842351	-0.15394
0.152167	-0.0831687	-0.156096
0.152333	-0.0818958	-0.15833
0.1525	-0.0805008	-0.160343
0.152667	-0.0791946	-0.161827
0.152833	-0.0779401	-0.163029
0.153	-0.0765682	-0.164303
0.153167	-0.0751209	-0.16554
0.153333	-0.0737354	-0.166445
0.1535	-0.072274	-0.167058
0.153667	-0.0705872	-0.167465
0.153833	-0.068873	-0.1675
0.154	-0.0672482	-0.167219
0.154167	-0.0654619	-0.167022
0.154333	-0.0633724	-0.16725
0.1545	-0.061054	-0.167947
0.154667	-0.0585054	-0.168882
0.154833	-0.0558852	-0.169778
0.155	-0.0535951	-0.170554
0.155167	-0.0516944	-0.171244
0.155333	-0.0497672	-0.171831
0.1555	-0.0476101	-0.172285
0.155667	-0.0455523	-0.172533
0.155833	-0.0439319	-0.17245
0.156	-0.0427713	-0.171984
0.156167	-0.0419926	-0.171249
0.156333	-0.0413926	-0.170498
0.1565	-0.0406859	-0.169797
0.156667	-0.0397467	-0.16894
0.156833	-0.0385134	-0.167659
0.157	-0.0370372	-0.165816
0.157167	-0.0354871	-0.163603
0.157333	-0.0340387	-0.161176
0.1575	-0.032974	-0.158495
0.157667	-0.0323942	-0.155743
0.157833	-0.0322271	-0.15313
0.158	-0.0325587	-0.150492
0.158167	-0.0331774	-0.147607
0.158333	-0.0334034	-0.144736
0.1585	-0.0329488	-0.142336
0.158667	-0.0322535	-0.140487
0.158833	-0.0317602	-0.138998
0.159	-0.0314665	-0.137603
0.159167	-0.0312387	-0.136067
0.159333	-0.0312063	-0.134363
0.1595	-0.0315776	-0.13249
0.159667	-0.0321596	-0.130367
0.159833	-0.0325235	-0.128069
0.16	-0.0325099	-0.125935
0.160167	-0.0322125	-0.124202
0.160333	-0.0317507	-0.122759
0.1605	-0.0311349	-0.12146
0.160667	-0.0300714	-0.120167
0.160833	-0.0287694	-0.118707
0.161	-0.0292945	-0.117231
0.161167	-0.0346264	-0.115993
0.161333	-0.0461305	-0.11475
0.1615	-0.0624891	-0.113278
0.161667	-0.0809041	-0.111992
0.161833	-0.0991035	-0.11126
0.162	-0.115721	-0.110875
0.162167	-0.129762	-0.110485
0.162333	-0.140772	-0.109885
0.1625	-0.14874	-0.108849
0.162667	-0.153852	-0.107119
0.162833	-0.156667	-0.104754
0.163	-0.157942	-0.102041
0.163167	-0.158287	-0.0989508
0.163333	-0.158253	-0.095216
0.1635	-0.158144	-0.0909516
0.163667	-0.157744	-0.0865857
0.163833	-0.156822	-0.0822482
0.164	-0.155523	-0.0777992
0.164167	-0.154172	-0.0733542
0.164333	-0.153019	-0.0692995
0.1645	-0.152159	-0.0659127
0.164667	-0.151495	-0.0631099
0.164833	-0.150605	-0.0606616
0.165	-0.148981	-0.0584289
0.165167	-0.146433	-0.0561585
0.165333	-0.143154	-0.0537151
0.1655	-0.139689	-0.0511612
0.165667	-0.136646	-0.0484104
0.165833	-0.134222	-0.045589
0.166	-0.132102	-0.0430653
0.166167	-0.129679	-0.0408311
0.166333	-0.126675	-0.0386127
0.1665	-0.123624	-0.0362823
0.166667	-0.121163	-0.0338406
0.166833	-0.119235	-0.0313458
0.167	-0.117588	-0.0286865
0.167167	-0.116372	-0.0255224
0.167333	-0.11592	-0.0218537
0.1675	-0.116407	-0.0182601
0.167667	-0.117701	-0.0153039
0.167833	-0.119366	-0.0130734
0.168	-0.120847	-0.0112976
0.168167	-0.121742	-0.00956991
0.168333	-0.121871	-0.00764414
0.1685	-0.121135	-0.00562346
0.168667	-0.119654	-0.00366133
0.168833	-0.117979	-0.00163084
0.169	-0.116633	0.000611332
0.169167	-0.115722	0.00297462
0.169333	-0.115072	0.00545864
0.1695	-0.114328	0.00815761
0.169667	-0.113334	0.0108328
0.169833	-0.112325	0.0131552
0.17	-0.111689	0.0151874
0.170167	-0.111753	0.017091
0.170333	-0.112237	0.0187958
0.1705	-0.112351	0.020322
0.170667	-0.112034	0.0219298
0.170833	-0.111919	0.0237366
0.171	-0.112343	0.0255688
0.171167	-0.113341	0.0273129
0.171333	-0.114664	0.0292036
0.1715	-0.115782	0.0314411
0.171667	-0.116349	0.0338436
0.171833	-0.116234	0.0363798
0.172	-0.115557	0.0392943
0.172167	-0.114788	0.0424869
0.172333	-0.114389	0.045669
0.1725	-0.114499	0.0487724
0.172667	-0.115184	0.0516313
0.172833	-0.116569	0.0540179
0.173	-0.118285	0.0560202
0.173167	-0.119585	0.0578665
0.173333	-0.120202	0.0597341
0.1735	-0.120392	0.0615573
0.173667	-0.120429	0.0629236
0.173833	-0.120375	0.0636297
0.174	-0.120122	0.0639722
0.174167	-0.119631	0.0644339
0.174333	-0.119108	0.0653028
0.1745	-0.11868	0.0664855
0.174667	-0.118206	0.0677991
0.174833	-0.117526	0.0693177
0.175	-0.11656	0.0711217
0.175167	-0.115372	0.0729822
0.175333	-0.114149	0.0747723
0.1755	-0.11299	0.0766861
0.175667	-0.111971	0.0788747
0.175833	-0.111197	0.0812539
0.176	-0.110606	0.083558
0.176167	-0.11002	0.0856165
0.176333	-0.109497	0.0874135
0.1765	-0.109283	0.0887575
0.176667	-0.109352	0.0894456
0.176833	-0.109498	0.0896333
0.177	-0.109621	0.0894972
0.177167	-0.109468	0.0891092
0.177333	-0.108648	0.0887626
0.1775	-0.107013	0.0887889
0.177667	-0.104728	0.089322
0.177833	-0.102253	0.0902782
0.178	-0.100193	0.091386
0.178167	-0.0986738	0.0923796
0.178333	-0.0974034	0.093171
0.1785	-0.0965416	0.0938917
0.178667	-0.0965258	0.0947299
0.178833	-0.0973052	0.0958028
0.179	-0.0983726	0.0971116
0.179167	-0.0993428	0.0986322
0.179333	-0.100197	0.10051
0.1795	-0.100847	0.102814
0.179667	-0.101131	0.10541
0.179833	-0.101168	0.108272
0.18	-0.101045	0.111437
0.180167	-0.100681	0.114792
0.180333	-0.100236	0.118044
0.1805	-0.0999206	0.120765
0.180667	-0.0995304	0.122793
0.180833	-0.0989213	0.124397
0.181	-0.0984474	0.125919
0.181167	-0.0982577	0.127376
0.181333	-0.098198	0.128547
0.1815	-0.0984717	0.129617
0.181667	-0.0992865	0.131014
0.181833	-0.100279	0.132669
0.182	-0.101109	0.134442
0.182167	-0.102069	0.136509
0.182333	-0.103457	0.1389
0.1825	-0.104955	0.141484
0.182667	-0.106064	0.144198
0.182833	-0.106676	0.146883
0.183	-0.106939	0.149393
0.183167	-0.106925	0.151947
0.183333	-0.106797	0.154776
0.1835	-0.10693	0.157885
0.183667	-0.107319	0.161347
0.183833	-0.107564	0.165046
0.184	-0.10771	0.16863
0.184167	-0.108087	0.172164
0.184333	-0.108667	0.1758
0.1845	-0.10913	0.179166
0.184667	-0.109191	0.181991
0.184833	-0.108855	0.184394
0.185	-0.108286	0.186371
0.185167	-0.107606	0.187929
0.185333	-0.106849	0.189165
0.1855	-0.106066	0.189863
0.185667	-0.105587	0.18994
0.185833	-0.105617	0.189795
0.186	-0.105696	0.189539
0.186167	-0.105333	0.188736
0.186333	-0.104956	0.187296
0.1865	-0.105127	0.185901
0.186667	-0.105439	0.185113
0.186833	-0.1054	0.184532
0.187	-0.105243	0.183273
0.187167	-0.105293	0.180809
0.187333	-0.105717	0.176968
0.1875	-0.106677	0.171419
0.187667	-0.108003	0.163203
0.187833	-0.10929	0.151057
0.188	-0.110352	0.134945
0.188167	-0.111208	0.116684
0.188333	-0.11182	0.098467
0.1885	-0.111903	0.0819207
0.188667	-0.111363	0.0685836
0.188833	-0.110682	0.0597734
0.189	-0.110345	0.0557998
0.189167	-0.110414	0.0562094
0.189333	-0.110715	0.0605248
0.1895	-0.111054	0.0680217
0.189667	-0.111366	0.0775085
0.189833	-0.111592	0.0876195
0.19	-0.111605	0.0969264
0.190167	-0.111522	0.104167
0.190333	-0.111709	0.108208
0.1905	-0.112233	0.108089
0.190667	-0.112691	0.103907
0.190833	-0.112831	0.0969974
0.191	-0.112768	0.0889294
0.191167	-0.112476	0.0806933
0.191333	-0.11192	0.0727475
0.1915	-0.111287	0.0655832
0.191667	-0.110835	0.0598695
0.191833	-0.110902	0.0561518
0.192	-0.111315	0.0544602
0.192167	-0.111445	0.0541978
0.192333	-0.111315	0.0547258
0.1925	-0.111483	0.0557674
0.192667	-0.112178	0.0571711
0.192833	-0.113069	0.0588475
0.193	-0.113879	0.0608889
0.193167	-0.114873	0.0634908
0.193333	-0.116272	0.066862
0.1935	-0.117966	0.0711546
0.193667	-0.11986	0.0762386
0.193833	-0.121761	0.0816424
0.194	-0.123293	0.0870684
0.194167	-0.1243	0.0925755
0.194333	-0.124865	0.0979985
0.1945	-0.124941	0.103018
0.194667	-0.124582	0.107559
0.194833	-0.124186	0.111637
0.195	-0.124002	0.115305
0.195167	-0.123986	0.118507
0.195333	-0.124146	0.121037
0.1955	-0.124456	0.122914
0.195667	-0.124709	0.124319
0.195833	-0.124677	0.125353
0.196	-0.124361	0.126052
0.196167	-0.124061	0.12642
0.196333	-0.124021	0.126441
0.1965	-0.124077	0.126208
0.196667	-0.124008	0.126001
0.196833	-0.124089	0.125964
0.197	-0.124672	0.126026
0.197167	-0.125431	0.126366
0.197333	-0.125783	0.127239
0.1975	-0.125606	0.12845
0.197667	-0.125196	0.129639
0.197833	-0.124811	0.130756
0.198	-0.124442	0.131896
0.198167	-0.124162	0.132935
0.198333	-0.124151	0.133654
0.1985	-0.124247	0.134165
0.198667	-0.124134	0.134808
0.198833	-0.123828	0.135607
0.199	-0.123594	0.136313
0.199167	-0.123574	0.136762
0.199333	0.00762939	-0.0704956
0.1995	0.00777036	-0.070753
0.199667	0.00827845	-0.071498
0.199833	0.00904246	-0.0722385
0.2	0.00971922	-0.0725243
0.200167	0.0102244	-0.0726489
0.200333	0.0106586	-0.0727703
0.2005	0.0110798	-0.072696
0.200667	0.011704	-0.072772
0.200833	0.0128496	-0.0736
0.201	0.0144335	-0.0750523
0.201167	0.015963	-0.0766472
0.201333	0.017206	-0.0782607
0.2015	0.0183983	-0.0798545
0.201667	0.0195237	-0.0812648
0.201833	0.0201418	-0.0823827
0.202	0.0201398	-0.0832051
0.202167	0.0198444	-0.0839434
0.202333	0.0194215	-0.0848933
0.2025	0.0188772	-0.0858536
0.202667	0.0184152	-0.0862224
0.202833	0.0182085	-0.085833
0.203	0.0181639	-0.0848966
0.203167	0.0182328	-0.0835745
0.203333	0.0185468	-0.081921
0.2035	0.0190357	-0.0799735
0.203667	0.0195054	-0.0781899
0.203833	0.0199681	-0.0768877
0.204	0.0203952	-0.0756678
0.204167	0.0207407	-0.0744393
0.204333	0.0210244	-0.0736288
0.2045	0.0212274	-0.0733416
0.204667	0.0215339	-0.0733761
0.204833	0.0222437	-0.0736143
0.205	0.023431	-0.0741355
0.205167	0.024872	-0.0749312
0.205333	0.0261577	-0.0757594
0.2055	0.0270812	-0.0764866
0.205667	0.0278821	-0.0770356
0.205833	0.0287177	-0.07742
0.206	0.0292695	-0.0778335
0.206167	0.0294356	-0.078214
0.206333	0.0295738	-0.0784264
0.2065	0.0297077	-0.0786916
0.206667	0.0297544	-0.0793677
0.206833	0.0301214	-0.0806576
0.207	0.030836	-0.0822558
0.207167	0.031281	-0.083617
0.207333	0.0314131	-0.0849926
0.2075	0.0317446	-0.086984
0.207667	0.0322631	-0.0894126
0.207833	0.0326822	-0.0917242
0.208	0.0331141	-0.0936832
0.208167	0.033777	-0.0954487
0.208333	0.0347616	-0.0971505
0.2085	0.0358978	-0.0984602
0.208667	0.036752	-0.0991252
0.208833	0.0374303	-0.0994521
0.209	0.0385786	-0.0996584
0.209167	0.0405797	-0.0997648
0.209333	0.0434265	-0.100117
0.2095	0.0467464	-0.100875
0.209667	0.0500049	-0.101837
0.209833	0.0528213	-0.102885
0.21	0.0549442	-0.103811
0.210167	0.0563474	-0.104254
0.210333	0.0572868	-0.103897
0.2105	0.0579453	-0.102708
0.210667	0.0582848	-0.10103
0.210833	0.0584231	-0.0991871
0.211	0.0586604	-0.0971773
0.211167	0.0591627	-0.0950259
0.211333	0.0600458	-0.0929321
0.2115	0.0614088	-0.0909207
0.211667	0.0631476	-0.0890013
0.211833	0.0650491	-0.0873319
0.212	0.0669329	-0.085969
0.212167	0.0685436	-0.0849368
0.212333	0.0696966	-0.0840157
0.2125	0.0705676	-0.082915
0.212667	0.071384	-0.0819469
0.212833	0.0720813	-0.0813684
0.213	0.072444	-0.080841
0.213167	0.0723301	-0.0802969
0.213333	0.0718768	-0.0800922
0.2135	0.0713648	-0.0801644
0.213667	0.0709054	-0.0801757
0.213833	0.0705594	-0.0800733
0.214	0.0703753	-0.0797408
0.214167	0.070316	-0.0788339
0.214333	0.0705314	-0.0772945
0.2145	0.0713775	-0.0755833
0.214667	0.0729526	-0.0741814
0.214833	0.0749052	-0.073115
0.215	0.0768635	-0.0722268
0.215167	0.0788336	-0.0716591
0.215333	0.0809288	-0.0715018
0.2155	0.0830462	-0.0713937
0.215667	0.0851794	-0.0714484
0.215833	0.0873903	-0.0722404
0.216	0.0892407	-0.0735826
0.216167	0.0900737	-0.0749615
0.216333	0.0896726	-0.0761796
0.2165	0.0880526	-0.077019
0.216667	0.0853888	-0.0773213
0.216833	0.0824044	-0.0770834
0.217	0.0799567	-0.0763954
0.217167	0.0783318	-0.0755109
0.217333	0.0773099	-0.0745776
0.2175	0.076769	-0.073455
0.217667	0.0769417	-0.072099
0.217833	0.0778769	-0.0707022
0.218	0.0791155	-0.0694037
0.218167	0.0801122	-0.0683216
0.218333	0.0804508	-0.0675571
0.2185	0.0798254	-0.0669352
0.218667	0.0784725	-0.0662401
0.218833	0.0771174	-0.0654559
0.219	0.0760534	-0.0645243
0.219167	0.075035	-0.0634321
0.219333	0.0739865	-0.0622633
0.2195	0.0730644	-0.0609187
0.219667	0.0724566	-0.0594528
0.219833	0.0724242	-0.058266
0.22	0.0730023	-0.0573964
0.220167	0.0737968	-0.0564262
0.220333	0.0743292	-0.0551814
0.2205	0.0744791	-0.0539524
0.220667	0.0746352	-0.053151
0.220833	0.0752057	-0.0528658
0.221	0.0761554	-0.0527693
0.221167	0.0773149	-0.0526359
0.221333	0.0785342	-0.0526306
0.2215	0.0795529	-0.0527691
0.221667	0.080257	-0.0529152
0.221833	0.0808008	-0.0531893
0.222	0.0813391	-0.0533825
0.222167	0.081892	-0.0530669
0.222333	0.0826425	-0.0524812
0.2225	0.0838642	-0.0518734
0.222667	0.0853143	-0.0509754
0.222833	0.0862919	-0.0497735
0.223	0.0862444	-0.0485161
0.223167	0.0852491	-0.047171
0.223333	0.0838301	-0.0455222
0.2235	0.0822903	-0.0434984
0.223667	0.0806555	-0.0411762
0.223833	0.0789994	-0.0386714
0.224	0.0773277	-0.0361526
0.224167	0.0753943	-0.0337046
0.224333	0.073148	-0.0312781
0.2245	0.0706669	-0.0287477
0.224667	0.0668005	-0.02598
0.224833	0.0590345	-0.0230742
0.225	0.0456345	-0.0203499
0.225167	0.027185	-0.0181142
0.225333	0.00607227	-0.0165859
0.2255	-0.0149482	-0.0158607
0.225667	-0.0340922	-0.0160031
0.225833	-0.0506421	-0.0168927
0.226	-0.0642785	-0.0177977
0.226167	-0.0750124	-0.0180515
0.226333	-0.0830286	-0.0179042
0.2265	-0.0885172	-0.0179159
0.226667	-0.0919254	-0.0181267
0.226833	-0.0938054	-0.018056
0.227	-0.0945114	-0.0172773
0.227167	-0.0941994	-0.0158803
0.227333	-0.0928184	-0.0142235
0.2275	-0.0904214	-0.0123616
0.227667	-0.087449	-0.0100704
0.227833	-0.0843158	-0.00746107
0.228	-0.0812636	-0.00487577
0.228167	-0.0784964	-0.00228066
0.228333	-0.0761097	0.000363557
0.2285	-0.0744161	0.00287588
0.228667	-0.0737996	0.0054205
0.228833	-0.0740336	0.00827784
0.229	-0.0746655	0.0114127
0.229167	-0.0756	0.0147249
0.229333	-0.0766534	0.0179583
0.2295	-0.0774165	0.020667
0.229667	-0.0779567	0.0228583
0.229833	-0.0787334	0.0249769
0.23	-0.0796239	0.0271791
0.230167	-0.0799397	0.0293008
0.230333	-0.0794327	0.031176
0.2305	-0.0784202	0.0325892
0.230667	-0.0770975	0.0335436
0.230833	-0.0755902	0.0343538
0.231	-0.0743001	0.0351414
0.231167	-0.0735043	0.0359492
0.231333	-0.0731751	0.0370115
0.2315	-0.0732942	0.0384091
0.231667	-0.073728	0.0399156
0.231833	-0.074102	0.0412606
0.232	-0.0741502	0.042394
0.232167	-0.0740224	0.0433558
0.232333	-0.0739635	0.0439648
0.2325	-0.0739475	0.0441638
0.232667	-0.0740767	0.0442493
0.232833	-0.0746993	0.0443411
0.233	-0.0757843	0.0443497
0.233167	-0.0766989	0.0443718
0.233333	-0.0768484	0.0446091
0.2335	-0.0761642	0.0451983
0.233667	-0.0748534	0.0461987
0.233833	-0.0732826	0.0474805
0.234	-0.0719044	0.0488949
0.234167	-0.0708153	0.0504095
0.234333	-0.069699	0.0518116
0.2345	-0.0683423	0.0529
0.234667	-0.0668362	0.0536755
0.234833	-0.0654105	0.054096
0.235	-0.0644695	0.0542795
0.235167	-0.064252	0.0545477
0.235333	-0.0645406	0.0551734
0.2355	-0.0651121	0.056352
0.235667	-0.0657149	0.0579437
0.235833	-0.0659585	0.0596479
0.236	-0.0659153	0.061312
0.236167	-0.0659246	0.0625653
0.236333	-0.0659178	0.0631236
0.2365	-0.0658215	0.063228
0.236667	-0.0658717	0.0631679
0.236833	-0.0661466	0.0629151
0.237	-0.0665191	0.0624119
0.237167	-0.0668016	0.0620155
0.237333	-0.0668688	0.0622095
0.2375	-0.066903	0.0629751
0.237667	-0.0670052	0.0639721
0.237833	-0.0669833	0.0650436
0.238	-0.066847	0.0661749
0.238167	-0.0667339	0.0672965
0.238333	-0.0666388	0.0681625
0.2385	-0.0666731	0.0686356
0.238667	-0.0669899	0.0692171
0.238833	-0.0674563	0.0703056
0.239	-0.0678525	0.0714602
0.239167	-0.0682392	0.0723806
0.239333	-0.0689442	0.073322
0.2395	-0.07014	0.0742625
0.239667	-0.0715177	0.0748205
0.239833	-0.0726255	0.0749167
0.24	-0.0733059	0.0748439
0.240167	-0.07359	0.074644
0.240333	-0.0734071	0.0741519
0.2405	-0.0726147	0.0734752
0.240667	-0.071348	0.0728019
0.240833	-0.0699461	0.072099
0.241	-0.0684784	0.0711762
0.241167	-0.0669086	0.0701191
0.241333	-0.0655955	0.0692876
0.2415	-0.064957	0.0687656
0.241667	-0.0649067	0.0685636
0.241833	-0.0652744	0.0689754
0.242	-0.0661318	0.0700848
0.242167	-0.0673019	0.0713809
0.242333	-0.0685234	0.0722758
0.2425	-0.0698451	0.0726822
0.242667	-0.0711373	0.0727733
0.242833	-0.0721841	0.0726855
0.243	-0.0731671	0.0726004
0.243167	-0.0740426	0.072487
0.243333	-0.0745092	0.0722544
0.2435	-0.074823	0.0721906
0.243667	-0.075406	0.0723813
0.243833	-0.0762189	0.0725483
0.244	-0.0770221	0.0725211
0.244167	-0.0776196	0.0721142
0.244333	-0.0779699	0.0713003
0.2445	-0.0781947	0.0703215
0.244667	-0.0783272	0.0691929
0.244833	-0.0784449	0.0677526
0.245	-0.0787337	0.0660992
0.245167	-0.0792133	0.0647302
0.245333	-0.0798563	0.0642173
0.2455	-0.0804482	0.0644724
0.245667	-0.0803838	0.0648808
0.245833	-0.079205	0.0652751
0.246	-0.0771916	0.0657818
0.246167	-0.0751297	0.0660687
0.246333	-0.0732818	0.0658238
0.2465	-0.0712846	0.0652821
0.246667	-0.0692356	0.0645506
0.246833	-0.0675876	0.0634253
0.247	-0.0663415	0.0620887
0.247167	-0.0654593	0.0610672
0.247333	-0.0651387	0.0606792
0.2475	-0.0645667	0.0609861
0.247667	-0.0611215	0.0618732
0.247833	-0.052145	0.0630735
0.248	-0.0373761	0.064274
0.248167	-0.0191351	0.0650595
0.248333	-0.000408417	0.0650623
0.2485	0.0167699	0.0642625
0.248667	0.0313117	0.0629571
0.248833	0.0428658	0.0614507
0.249	0.0518883	0.0598323
0.249167	0.059108	0.058272
0.249333	0.0648305	0.0571134
0.2495	0.0689065	0.056477
0.249667	0.0713539	0.0561102
0.249833	0.0727626	0.05548
0.25	0.0736616	0.0542596
0.250167	0.0740022	0.0527035
0.250333	0.0738347	0.0512349
0.2505	0.0734898	0.050063
0.250667	0.0730219	0.0491693
0.250833	0.0724208	0.0484891
0.251	0.0719359	0.0480618
0.251167	0.0716685	0.0479289
0.251333	0.0712925	0.0480876
0.2515	0.0707177	0.0483898
0.251667	0.070417	0.0485514
0.251833	0.0705676	0.0484382
0.252	0.0707013	0.0481396
0.252167	0.0704886	0.047654
0.252333	0.0703282	0.0466831
0.2525	0.0709681	0.0451541
0.252667	0.0725663	0.0434206
0.252833	0.0743626	0.0415666
0.253	0.0756391	0.0394349
0.253167	0.0763816	0.037235
0.253333	0.076673	0.0352601
0.2535	0.0765169	0.0333919
0.253667	0.0761537	0.031442
0.253833	0.0758891	0.0294615
0.254	0.0759113	0.0274856
0.254167	0.0763179	0.0255304
0.254333	0.0771099	0.0237762
0.2545	0.0780794	0.0222551
0.254667	0.0789683	0.0207053
0.254833	0.0796484	0.0191758
0.255	0.0799254	0.0180887
0.255167	0.0796642	0.0174522
0.255333	0.0791769	0.0168372
0.2555	0.0791293	0.0159666
0.255667	0.0798945	0.0147141
0.255833	0.0810888	0.013072
0.256	0.0820273	0.0113427
0.256167	0.0825731	0.00989252
0.256333	0.08305	0.00880521
0.2565	0.0832727	0.00792152
0.256667	0.0827753	0.00696361
0.256833	0.081905	0.00565506
0.257	0.0813925	0.0041471
0.257167	0.0813775	0.00296946
0.257333	0.0816827	0.00223924
0.2575	0.082273	0.0016217
0.257667	0.0828453	0.00091766
0.257833	0.0829374	1.95137E-007
0.258	0.0825854	-0.00130527
0.258167	0.0819155	-0.00288952
0.258333	0.0807891	-0.00432304
0.2585	0.0793993	-0.00517702
0.258667	0.0782707	-0.00519236
0.258833	0.0775659	-0.004448
0.259	0.0771405	-0.00339269
0.259167	0.0771244	-0.00235757
0.259333	0.0777216	-0.00130823
0.2595	0.0786824	-0.000156336
0.259667	0.0796706	0.000925896
0.259833	0.080646	0.00168652
0.26	0.0815102	0.00207561
0.260167	0.0819396	0.00207873
0.260333	0.0815776	0.00176664
0.2605	0.0804859	0.00130814
0.260667	0.0791671	0.000737409
0.260833	0.0777289	0.000128293
0.261	0.0758578	-0.00043812
0.261167	0.0736204	-0.000809072
0.261333	0.0715606	-0.000362964
0.2615	0.0703625	0.000939021
0.261667	0.0704996	0.00211532
0.261833	0.071813	0.00290201
0.262	0.0736281	0.00371273
0.262167	0.0753986	0.00440019
0.262333	0.0768756	0.00467759
0.2625	0.0777883	0.00466359
0.262667	0.0779901	0.00457416
0.262833	0.0777993	0.00456612
0.263	0.077789	0.0048622
0.263167	0.0783242	0.00573403
0.263333	0.0793991	0.00767728
0.2635	0.0809483	0.0113467
0.263667	0.0830389	0.0169559
0.263833	0.085566	0.0238429
0.264	0.0881028	0.030904
0.264167	0.0899823	0.0376138
0.264333	0.0907928	0.0440496
0.2645	0.0911101	0.0500807
0.264667	0.091723	0.0552943
0.264833	0.0925007	0.0595341
0.265	0.0930705	0.0630356
0.265167	0.0934671	0.0660275
0.265333	0.0937209	0.0683297
0.2655	0.0937831	0.0696308
0.265667	0.0938092	0.0699524
0.265833	0.0939941	0.0693687
0.266	0.0939962	0.0676079
0.266167	0.0933048	0.0637015
0.266333	0.0921691	0.0561035
0.2665	0.0911584	0.0439232
0.266667	0.0905664	0.0274475
0.266833	0.0904743	0.00769593
0.267	0.0907042	-0.0136791
0.267167	0.090932	-0.0347643
0.267333	0.0908644	-0.0539944
0.2675	0.0905393	-0.0702877
0.267667	0.090259	-0.0827269
0.267833	0.0901525	-0.0902855
0.268	0.090258	-0.0922194
0.268167	0.0907483	-0.0885888
0.268333	0.0918629	-0.0801124
0.2685	0.0934721	-0.0677996
0.268667	0.0950301	-0.0532004
0.268833	0.0962342	-0.0383692
0.269	0.0971083	-0.0247949
0.269167	0.0973636	-0.0133869
0.269333	0.0965518	-0.00566962
0.2695	0.0948022	-0.00321299
0.269667	0.0924937	-0.00575539
0.269833	0.0898345	-0.0111401
0.27	0.0872927	-0.0173574
0.270167	0.0854716	-0.0238542
0.270333	0.0843081	-0.0303456
0.2705	0.0831755	-0.0358585
0.270667	0.0818719	-0.0397126
0.270833	0.0808329	-0.0419359
0.271	0.0803536	-0.0427877
0.271167	0.080192	-0.0426547
0.271333	0.0801552	-0.0418948
0.2715	0.0803301	-0.0406405
0.271667	0.0807248	-0.0390782
0.271833	0.0813329	-0.0375417
0.272	0.0819188	-0.0358635
0.272167	0.0821	-0.0336345
0.272333	0.0821237	-0.0311089
0.2725	0.0823386	-0.0284918
0.272667	0.0823034	-0.0253704
0.272833	0.0814243	-0.0217289
0.273	0.0797067	-0.0179914
0.273167	0.0775712	-0.0141369
0.273333	0.0755106	-0.0101003
0.2735	0.0737557	-0.00626516
0.273667	0.0721232	-0.00289784
0.273833	0.0703694	0.00015634
0.274	0.0684581	0.00292371
0.274167	0.0665196	0.00499065
0.274333	0.0648052	0.00624625
0.2745	0.0636542	0.0072729
0.274667	0.0631592	0.00852378
0.274833	0.0630879	0.00966476
0.275	0.0632204	0.0101594
0.275167	0.0632709	0.0102857
0.275333	0.0630807	0.0106497
0.2755	0.0631131	0.010947
0.275667	0.0638802	0.0105279
0.275833	0.0651793	0.00956049
0.276	0.0167847	0.00701904
0.276167	0.0166989	0.00711097
0.276333	0.0163075	0.0073648
0.2765	0.015482	0.00757947
0.276667	0.0143156	0.00764148
0.276833	0.0128405	0.00781511
0.277	0.0108937	0.00819347
0.277167	0.00835332	0.00836015
0.277333	0.00539121	0.00810191
0.2775	0.00264787	0.00799027
0.277667	0.000786163	0.00847192
0.277833	-0.000164477	0.00890924
0.278	-0.000577054	0.00855981
0.278167	-0.000752385	0.00767875
0.278333	-0.000804386	0.00672363
0.2785	-0.000834405	0.00568744
0.278667	-0.00101339	0.00448024
0.278833	-0.00120612	0.00307036
0.279	-0.00120831	0.0016131
0.279167	-0.00138232	0.000640904
0.279333	-0.00198349	0.000560435
0.2795	-0.00243033	0.000917339
0.279667	-0.00211715	0.00107253
0.279833	-0.00121916	0.00123912
0.28	-0.000490181	0.0019022
0.280167	-0.000485862	0.0029775
0.280333	-0.00096501	0.00387531
0.2805	-0.00137251	0.00439106
0.280667	-0.00158487	0.00497582
0.280833	-0.00169793	0.00558238
0.281	-0.00158501	0.00569454
0.281167	-0.00118302	0.00548676
0.281333	-0.000664711	0.0054153
0.2815	5.81658E-005	0.00531445
0.281667	0.00132608	0.0048964
0.281833	0.0031236	0.00421045
0.282	0.00503669	0.00308297
0.282167	0.00674764	0.00118068
0.282333	0.00830796	-0.00104118
0.2825	0.00978117	-0.00274403
0.282667	0.0109699	-0.00416725
0.282833	0.0117151	-0.00607515
0.283	0.0120426	-0.00825707
0.283167	0.0121555	-0.0101453
0.283333	0.0122259	-0.0118099
0.2835	0.0122756	-0.0135651
0.283667	0.0125595	-0.0156235
0.283833	0.0133873	-0.0178336
0.284	0.0145037	-0.0194547
0.284167	0.0152681	-0.0200531
0.284333	0.0154572	-0.0201866
0.2845	0.015391	-0.020716
0.284667	0.0152582	-0.0218796
0.284833	0.0150321	-0.0231052
0.285	0.0148563	-0.0239351
0.285167	0.0148433	-0.0248061
0.285333	0.0148867	-0.0263076
0.2855	0.014828	-0.028191
0.285667	0.0144634	-0.0298677
0.285833	0.0136683	-0.0315099
0.286	0.0127039	-0.0336418
0.286167	0.0120456	-0.0361369
0.286333	0.0118569	-0.0385176
0.2865	0.012046	-0.0405845
0.286667	0.0124989	-0.042321
0.286833	0.0129988	-0.0436509
0.287	0.0134458	-0.0445703
0.287167	0.0140068	-0.0454162
0.287333	0.0147123	-0.0465821
0.2875	0.0152883	-0.0479392
0.287667	0.0156124	-0.0492119
0.287833	0.0157919	-0.0505979
0.288	0.0158641	-0.0522332
0.288167	0.0158864	-0.0535968
0.288333	0.0160954	-0.054125
0.2885	0.0165606	-0.0539769
0.288667	0.0168095	-0.0535664
0.288833	0.0165933	-0.0528429
0.289	0.0162248	-0.051707
0.289167	0.0157884	-0.0504531
0.289333	0.0153188	-0.0493529
0.2895	0.0150006	-0.048452
0.289667	0.0147192	-0.0476348
0.289833	0.0143247	-0.0466427
0.29	0.01392	-0.0453915
0.290167	0.0136944	-0.0441358
0.290333	0.0138041	-0.0432477
0.2905	0.0141814	-0.0429611
0.290667	0.0147856	-0.0432975
0.290833	0.0158485	-0.0441047
0.291	0.0173225	-0.0450508
0.291167	0.0189354	-0.0457526
0.291333	0.020747	-0.046131
0.2915	0.0227795	-0.046621
0.291667	0.0246617	-0.0476458
0.291833	0.0261369	-0.0489128
0.292	0.0272448	-0.0499023
0.292167	0.0280406	-0.0507142
0.292333	0.0286579	-0.0515859
0.2925	0.0291909	-0.0521134
0.292667	0.0295045	-0.0517649
0.292833	0.029597	-0.0507416
0.293	0.0296445	-0.0496007
0.293167	0.0295734	-0.0484515
0.293333	0.0292238	-0.0471135
0.2935	0.028656	-0.0455658
0.293667	0.0284415	-0.0438547
0.293833	0.0303706	-0.0419556
0.294	0.036878	-0.039825
0.294167	0.0490717	-0.0375394
0.294333	0.0658751	-0.0353869
0.2945	0.084898	-0.0336706
0.294667	0.103841	-0.0325433
0.294833	0.121136	-0.0319028
0.295	0.135821	-0.0314972
0.295167	0.147677	-0.0311768
0.295333	0.157114	-0.0309184
0.2955	0.164482	-0.0308124
0.295667	0.169901	-0.0307943
0.295833	0.173407	-0.0306624
0.296	0.175025	-0.0303823
0.296167	0.175112	-0.0296742
0.296333	0.17432	-0.0279947
0.2965	0.173134	-0.0252571
0.296667	0.171782	-0.0218096
0.296833	0.17033	-0.0178038
0.297	0.16866	-0.0130754
0.297167	0.166592	-0.00766877
0.297333	0.164196	-0.00193068
0.2975	0.16188	0.00384099
0.297667	0.160034	0.00948312
0.297833	0.158731	0.0149015
0.298	0.157769	0.0198514
0.298167	0.157055	0.0240727
0.298333	0.156636	0.0277266
0.2985	0.156269	0.0311704
0.298667	0.155738	0.0342704
0.298833	0.155126	0.0366863
0.299	0.154285	0.0385123
0.299167	0.153149	0.0397582
0.299333	0.152094	0.0404768
0.2995	0.151303	0.0412407
0.299667	0.150618	0.0422238
0.299833	0.14984	0.0431457
0.3	0.148894	0.0441444
0.300167	0.147769	0.0455411
0.300333	0.146276	0.0472586
0.3005	0.14433	0.048909
0.300667	0.142312	0.0504451
0.300833	0.140641	0.0522502
0.301	0.139378	0.0544446
0.301167	0.138317	0.056939
0.301333	0.137373	0.0597257
0.3015	0.136703	0.0624761
0.301667	0.136214	0.0648964
0.301833	0.135536	0.0673397
0.302	0.134565	0.0701774
0.302167	0.133539	0.0732793
0.302333	0.132652	0.0764177
0.3025	0.131951	0.0798301
0.302667	0.131626	0.0838795
0.302833	0.131766	0.0881715
0.303	0.132113	0.092023
0.303167	0.132503	0.0954481
0.303333	0.132853	0.0987964
0.3035	0.133069	0.101845
0.303667	0.133292	0.104156
0.303833	0.133588	0.106017
0.304	0.133686	0.107961
0.304167	0.13338	0.110028
0.304333	0.132765	0.112119
0.3045	0.131959	0.114223
0.304667	0.131059	0.116153
0.304833	0.130206	0.117664
0.305	0.129399	0.118736
0.305167	0.128519	0.119305
0.305333	0.127369	0.119175
0.3055	0.125905	0.118589
0.305667	0.124573	0.118119
0.305833	0.123757	0.118
0.306	0.123306	0.118171
0.306167	0.122954	0.118496
0.306333	0.122566	0.119003
0.3065	0.121952	0.120066
0.306667	0.120968	0.121723
0.306833	0.119812	0.123464
0.307	0.118909	0.12516
0.307167	0.118498	0.127128
0.307333	0.118429	0.129406
0.3075	0.118427	0.131895
0.307667	0.118583	0.134614
0.307833	0.11922	0.137496
0.308	0.120367	0.140298
0.308167	0.121717	0.142826
0.308333	0.122936	0.145175
0.3085	0.123881	0.147505
0.308667	0.124544	0.149468
0.308833	0.124875	0.150604
0.309	0.124898	0.151148
0.309167	0.124846	0.151442
0.309333	0.124956	0.15136
0.3095	0.125329	0.150929
0.309667	0.125704	0.15046
0.309833	0.125641	0.150049
0.31	0.125277	0.149517
0.310167	0.125019	0.148749
0.310333	0.124659	0.147902
0.3105	0.123804	0.147387
0.310667	0.122613	0.147388
0.310833	0.12139	0.147849
0.311	0.120089	0.148789
0.311167	0.11871	0.149814
0.311333	0.117403	0.150326
0.3115	0.116198	0.150248
0.311667	0.115033	0.149767
0.311833	0.113852	0.149139
0.312	0.112731	0.148665
0.312167	0.111782	0.148553
0.312333	0.110915	0.148866
0.3125	0.11003	0.149459
0.312667	0.109105	0.150218
0.312833	0.108119	0.15138
0.313	0.107131	0.153509
0.313167	0.106122	0.156958
0.313333	0.105077	0.161258
0.3135	0.104203	0.16563
0.313667	0.103509	0.169751
0.313833	0.102796	0.173663
0.314	0.10222	0.17736
0.314167	0.102047	0.180449
0.314333	0.102265	0.182435
0.3145	0.102965	0.183212
0.314667	0.104146	0.18337
0.314833	0.105314	0.183805
0.315	0.106189	0.185132
0.315167	0.106911	0.187511
0.315333	0.107507	0.189639
0.3155	0.107882	0.189664
0.315667	0.108233	0.187026
0.315833	0.10873	0.182047
0.316	0.108845	0.175758
0.316167	0.107971	0.169674
0.316333	0.106343	0.164951
0.3165	0.104675	0.16229
0.316667	0.103237	0.161887
0.316833	0.101971	0.163377
0.317	0.10126	0.166015
0.317167	0.101605	0.16862
0.317333	0.102656	0.170296
0.3175	0.103706	0.17088
0.317667	0.104549	0.170054
0.317833	0.105064	0.167736
0.318	0.105264	0.164597
0.318167	0.105388	0.160853
0.318333	0.105306	0.156097
0.3185	0.104921	0.150313
0.318667	0.104477	0.143894
0.318833	0.104183	0.137374
0.319	0.104139	0.131192
0.319167	0.104141	0.125612
0.319333	0.103818	0.121111
0.3195	0.103042	0.11791
0.319667	0.101873	0.115719
0.319833	0.100386	0.114524
0.32	0.0987102	0.114315
0.320167	0.0970363	0.114528
0.320333	0.0955285	0.114878
0.3205	0.0942176	0.115778
0.320667	0.0931567	0.11737
0.320833	0.0928255	0.119424
0.321	0.0935773	0.122125
0.321167	0.09481	0.125305
0.321333	0.0957985	0.128052
0.3215	0.0964959	0.130211
0.321667	0.0969567	0.132203
0.321833	0.0969652	0.13358
0.322	0.0961742	0.133741
0.322167	0.094499	0.133158
0.322333	0.0923483	0.132702
0.3225	0.090133	0.132622
0.322667	0.0880908	0.132894
0.322833	0.0863054	0.133903
0.323	0.0844298	0.135818
0.323167	0.082273	0.137945
0.323333	0.080336	0.139536
0.3235	0.0789959	0.140502
0.323667	0.0779562	0.141136
0.323833	0.0768433	0.141782
0.324	0.075589	0.142734
0.324167	0.07421	0.144001
0.324333	0.0727086	0.145307
0.3245	0.0710899	0.146515
0.324667	0.0694034	0.147716
0.324833	0.0677477	0.148976
0.325	0.0661222	0.150399
0.325167	0.0645301	0.151971
0.325333	0.0631119	0.153121
0.3255	0.0621704	0.15316
0.325667	0.0622047	0.152036
0.325833	0.0631624	0.150293
0.326	-0.0152588	0.0323486
0.326167	-0.0152036	0.0323486
0.326333	-0.0148908	0.0323302
0.3265	-0.0142171	0.0322709
0.326667	-0.0131885	0.032141
0.326833	-0.0116778	0.031817
0.327	-0.0100405	0.0311432
0.327167	-0.00883358	0.0301399
0.327333	-0.00779738	0.0289323
0.3275	-0.00663518	0.0275069
0.327667	-0.00568167	0.0259153
0.327833	-0.00515922	0.0242408
0.328	-0.00483874	0.0224086
0.328167	-0.00455708	0.0204999
0.328333	-0.00448229	0.0184258
0.3285	-0.00473617	0.0160016
0.328667	-0.00537042	0.0135476
0.328833	-0.0064612	0.0114311
0.329	-0.00775713	0.009707
0.329167	-0.00885375	0.00820769
0.329333	-0.0097222	0.0067707
0.3295	-0.0105584	0.00547685
0.329667	-0.011411	0.00440939
0.329833	-0.0121749	0.00359124
0.33	-0.0126919	0.00301709
0.330167	-0.012862	0.00244942
0.330333	-0.0127774	0.00181506
0.3305	-0.012659	0.00142791
0.330667	-0.0126693	0.00132846
0.330833	-0.012933	0.00115796
0.331	-0.0135157	0.000765611
0.331167	-0.0143113	0.00045249
0.331333	-0.0150693	0.000368554
0.3315	-0.0154419	-9.06299E-006
0.331667	-0.0152923	-0.00112692
0.331833	-0.0150404	-0.00266647
0.332	-0.0151171	-0.00408312
0.332167	-0.0152879	-0.00511716
0.332333	-0.0151868	-0.00585952
0.3325	-0.0147968	-0.00656359
0.332667	-0.0140628	-0.00722943
0.332833	-0.0127627	-0.00774986
0.333	-0.0107137	-0.00824555
0.333167	-0.00824489	-0.00875909
0.333333	-0.00626894	-0.00911412
0.3335	-0.00525812	-0.00931447
0.333667	-0.00500262	-0.00938113
0.333833	-0.00532557	-0.00901963
0.334	-0.00609773	-0.00822259
0.334167	-0.00710208	-0.00738799
0.334333	-0.00811336	-0.00657796
0.3345	-0.00882109	-0.00573232
0.334667	-0.0090873	-0.00506048
0.334833	-0.00919606	-0.00456019
0.335	-0.00926254	-0.00420398
0.335167	-0.00900237	-0.00436715
0.335333	-0.00825944	-0.005169
0.3355	-0.00701531	-0.00618119
0.335667	-0.00537197	-0.00704471
0.335833	-0.00357398	-0.00777417
0.336	-0.00172319	-0.00854904
0.336167	4.3442E-005	-0.00946852
0.336333	0.00146096	-0.0106459
0.3365	0.00248555	-0.0122741
0.336667	0.0031636	-0.0141709
0.336833	0.00350365	-0.0157567
0.337	0.00384477	-0.0168194
0.337167	0.00460659	-0.0176208
0.337333	0.00568731	-0.0181962
0.3375	0.00661607	-0.0183232
0.337667	0.00715826	-0.0180726
0.337833	0.00743962	-0.0176736
0.338	0.00753112	-0.0171441
0.338167	0.00758544	-0.016506
0.338333	0.00787508	-0.0159598
0.3385	0.00820657	-0.0157125
0.338667	0.00825635	-0.0157443
0.338833	0.00823178	-0.0158789
0.339	0.0084802	-0.0160196
0.339167	0.0088776	-0.0161161
0.339333	0.00914864	-0.0161582
0.3395	0.00934751	-0.0162048
0.339667	0.0094596	-0.0163058
0.339833	0.00931704	-0.0163846
0.34	0.00902876	-0.016173
0.340167	0.00884179	-0.015351
0.340333	0.00874707	-0.0138175
0.3405	0.00847396	-0.0119018
0.340667	0.00794292	-0.00996227
0.340833	0.00734428	-0.00798559
0.341	0.0067994	-0.00601516
0.341167	0.00638794	-0.00432345
0.341333	0.00613799	-0.00305672
0.3415	0.00602396	-0.00210913
0.341667	0.00604915	-0.00135038
0.341833	0.00605742	-0.000785962
0.342	0.00594997	-0.000207637
0.342167	0.00591792	0.0006641
0.342333	0.00614517	0.00139657
0.3425	0.00664915	0.00157025
0.342667	0.00735142	0.00176388
0.342833	0.00819797	0.00231633
0.343	0.00913034	0.00256423
0.343167	0.00994479	0.00199627
0.343333	0.0104159	0.000742344
0.3435	0.0105494	-0.000899797
0.343667	0.0104494	-0.0026406
0.343833	0.0101711	-0.0041271
0.344	0.00991094	-0.00496951
0.344167	0.00986728	-0.00501248
0.344333	0.00994756	-0.00446578
0.3445	0.00991089	-0.00359708
0.344667	0.0095999	-0.00253038
0.344833	0.00902153	-0.00134885
0.345	0.00847137	-0.000139562
0.345167	0.00829607	0.00113135
0.345333	0.00841814	0.00248678
0.3455	0.00866596	0.00374462
0.345667	0.00910935	0.00478981
0.345833	0.00972221	0.00557788
0.346	0.0105232	0.00596616
0.346167	0.0117238	0.00608523
0.346333	0.013268	0.00635306
0.3465	0.0149024	0.00679895
0.346667	0.0165859	0.00706581
0.346833	0.0182944	0.00709224
0.347	0.0197469	0.00688879
0.347167	0.0207162	0.00610075
0.347333	0.0214265	0.00473756
0.3475	0.022122	0.00346438
0.347667	0.022556	0.00254119
0.347833	0.022432	0.00169597
0.348	0.0216905	0.0009993
0.348167	0.0203918	0.000643852
0.348333	0.0187973	0.00051127
0.3485	0.0170737	0.000489363
0.348667	0.0152158	0.000613737
0.348833	0.0133536	0.00088322
0.349	0.0115341	0.00122411
0.349167	0.00971029	0.00162632
0.349333	0.00797516	0.00212747
0.3495	0.00650368	0.00279891
0.349667	0.005344	0.00372173
0.349833	0.00429357	0.00479293
0.35	0.00345888	0.0058242
0.350167	0.003277	0.00680218
0.350333	0.00366934	0.00788806
0.3505	0.00428809	0.00930525
0.350667	0.00500235	0.0111581
0.350833	0.00549983	0.0131355
0.351	0.00549351	0.0148132
0.351167	0.00531169	0.0163723
0.351333	0.00540579	0.0182326
0.3515	0.00564476	0.0203084
0.351667	0.00557133	0.0222023
0.351833	0.00500927	0.023711
0.352	0.00430157	0.0249618
0.352167	0.00389442	0.0260018
0.352333	0.00381076	0.0267619
0.3525	0.00392291	0.0276124
0.352667	0.00437838	0.0288508
0.352833	0.00523194	0.0299321
0.353	0.00611902	0.0303171
0.353167	0.00685827	0.0304453
0.353333	0.00760881	0.0309256
0.3535	0.00828178	0.0316114
0.353667	0.00858741	0.0323311
0.353833	0.00864517	0.0332108
0.354	0.00988153	0.0340122
0.354167	0.0149001	0.0344108
0.354333	0.0253303	0.0344886
0.3545	0.0401889	0.0345014
0.354667	0.056798	0.0345511
0.354833	0.0728217	0.0345287
0.355	0.0869804	0.0343698
0.355167	0.0987874	0.0341853
0.355333	0.108456	0.0341032
0.3555	0.116321	0.0342222
0.355667	0.122353	0.0344912
0.355833	0.126475	0.0347736
0.356	0.128942	0.0353421
0.356167	0.130248	0.0365632
0.356333	0.130827	0.0382274
0.3565	0.131273	0.0399011
0.356667	0.132046	0.0414342
0.356833	0.132911	0.0429439
0.357	0.133765	0.0445993
0.357167	0.135016	0.0464541
0.357333	0.136831	0.0484656
0.3575	0.138845	0.0505079
0.357667	0.140265	0.0522466
0.357833	0.140616	0.0534486
0.358	0.140239	0.0543447
0.358167	0.13947	0.0551627
0.358333	0.138302	0.055877
0.3585	0.136905	0.0564737
0.358667	0.135559	0.057039
0.358833	0.134433	0.0576244
0.359	0.133484	0.0581206
0.359167	0.132603	0.0585443
0.359333	0.131834	0.0590712
0.3595	0.131146	0.0596343
0.359667	0.130508	0.0600283
0.359833	0.130169	0.0601474
0.36	0.130331	0.0599334
0.360167	0.130868	0.0595293
0.360333	0.131517	0.0593175
0.3605	0.132161	0.0594055
0.360667	0.132738	0.0594518
0.360833	0.133005	0.059333
0.361	0.132911	0.0593261
0.361167	0.132696	0.059557
0.361333	0.132398	0.0599464
0.3615	0.131861	0.0606574
0.361667	0.13092	0.061867
0.361833	0.129569	0.0632684
0.362	0.128039	0.064619
0.362167	0.126462	0.0660001
0.362333	0.12473	0.0671612
0.3625	0.122737	0.0677017
0.362667	0.120781	0.0677519
0.362833	0.119434	0.0676919
0.363	0.118892	0.0675599
0.363167	0.118928	0.0672821
0.363333	0.119376	0.0671598
0.3635	0.120259	0.0675332
0.363667	0.121468	0.0682988
0.363833	0.122616	0.069101
0.364	0.123443	0.0696846
0.364167	0.123882	0.0700689
0.364333	0.123724	0.0703986
0.3645	0.122858	0.0709182
0.364667	0.121541	0.0719958
0.364833	0.120077	0.073596
0.365	0.118593	0.0751515
0.365167	0.117155	0.0761918
0.365333	0.115763	0.0766527
0.3655	0.114415	0.0766988
0.365667	0.113271	0.0766223
0.365833	0.112276	0.0766633
0.366	0.1111	0.076758
0.366167	0.109769	0.0767508
0.366333	0.108659	0.0766359
0.3665	0.10821	0.0764
0.366667	0.108631	0.0761421
0.366833	0.109533	0.0762156
0.367	0.11042	0.0770046
0.367167	0.111128	0.0786485
0.367333	0.111572	0.0807517
0.3675	0.111812	0.0828946
0.367667	0.111931	0.0852156
0.367833	0.111756	0.0877771
0.368	0.111179	0.0903053
0.368167	0.110311	0.0927071
0.368333	0.109228	0.0949453
0.3685	0.108046	0.0969049
0.368667	0.107151	0.0985591
0.368833	0.10693	0.0997557
0.369	0.107153	0.100465
0.369167	0.107213	0.10089
0.369333	0.106931	0.101044
0.3695	0.106465	0.100975
0.369667	0.105814	0.10094
0.369833	0.104858	0.101144
0.37	0.103617	0.101491
0.370167	0.102146	0.10173
0.370333	0.100401	0.101869
0.3705	0.0985342	0.101944
0.370667	0.0967517	0.10182
0.370833	0.0950745	0.101399
0.371	0.0936976	0.100676
0.371167	0.0929365	0.0997548
0.371333	0.092901	0.0987198
0.3715	0.0936219	0.0974312
0.371667	0.0949905	0.0957833
0.371833	0.0965543	0.0939453
0.372	0.0978356	0.0921454
0.372167	0.0985633	0.0905267
0.372333	0.0986507	0.089185
0.3725	0.0983755	0.0880796
0.372667	0.0980923	0.0871287
0.372833	0.097802	0.086433
0.373	0.0974387	0.0860366
0.373167	0.0969658	0.0857597
0.373333	0.0963318	0.0854591
0.3735	0.0957559	0.0851123
0.373667	0.0954718	0.084776
0.373833	0.0953363	0.0846328
0.374	0.09516	0.0848701
0.374167	0.0948675	0.0852833
0.374333	0.0942053	0.0854023
0.3745	0.093022	0.0852433
0.374667	0.09152	0.0851886
0.374833	0.0898791	0.0852602
0.375	0.0881706	0.0852355
0.375167	0.0864825	0.0850959
0.375333	0.0849124	0.0850715
0.3755	0.0835134	0.0853375
0.375667	0.0821957	0.0857254
0.375833	0.0810542	0.0860317
0.376	0.080473	0.0863652
0.376167	0.0805858	0.0868364
0.376333	0.0812205	0.0872417
0.3765	0.0820101	0.0873086
0.376667	0.0824863	0.0869937
0.376833	0.0826681	0.0864226
0.377	0.083002	0.0857881
0.377167	0.0835843	0.0852744
0.377333	0.0841872	0.0850141
0.3775	0.0847243	0.0851824
0.377667	0.0851392	0.0857592
0.377833	0.0853321	0.0863861
0.378	0.085355	0.0869948
0.378167	0.0854323	0.0878249
0.378333	0.0857959	0.0887854
0.3785	0.0863628	0.0897769
0.378667	0.0868245	0.0909844
0.378833	0.0871328	0.0924051
0.379	0.0874036	0.0937441
0.379167	0.0874448	0.0946842
0.379333	0.0869309	0.0951582
0.3795	0.0859123	0.0953502
0.379667	0.0847071	0.0952786
0.379833	0.0835403	0.0947066
0.38	0.0824857	0.0936084
0.380167	0.0814652	0.0923222
0.380333	0.0803708	0.0911169
0.3805	0.0792863	0.0899989
0.380667	0.0782462	0.088849
0.380833	0.0772937	0.0874647
0.381	0.0768477	0.0858572
0.381167	0.0770504	0.0843646
0.381333	0.0774321	0.0830041
0.3815	0.0774752	0.0814578
0.381667	0.0767032	0.0798613
0.381833	0.0750413	0.0786061
0.382	0.0732182	0.077646
0.382167	0.0717751	0.0767868
0.382333	0.0706304	0.0761656
0.3825	0.0697752	0.0760043
0.382667	0.0691559	0.0762857
0.382833	0.0686763	0.076853
0.383	0.0683556	0.0776499
0.383167	0.0680583	0.078573
0.383333	0.0677202	0.0794231
0.3835	0.0673525	0.0803176
0.383667	0.0669095	0.0814138
0.383833	0.0663741	0.0824348
0.384	0.0656387	0.0831847
0.384167	0.0646563	0.083921
0.384333	0.0634044	0.0847734
0.3845	0.0618413	0.0855521
0.384667	0.060247	0.08627
0.384833	0.0590121	0.0871241
0.385	0.0583152	0.0881256
0.385167	0.0580133	0.0891352
0.385333	0.0575966	0.0900749
0.3855	0.0568027	0.0909188
0.385667	0.056033	0.0917071
0.385833	0.0559167	0.0927211
0.386	0.0566087	0.0942337
0.386167	0.0570465	0.0959199
0.386333	0.0547059	0.0970182
0.3865	0.0469838	0.0972958
0.386667	0.0335198	0.0973924
0.386833	0.0164008	0.0980394
0.387	-0.00162561	0.0991897
0.387167	-0.0183998	0.100307
0.387333	-0.0327231	0.101172
0.3875	-0.0441831	0.10191
0.387667	-0.0528372	0.102716
0.387833	-0.0590028	0.103611
0.388	-0.0630404	0.104374
0.388167	-0.0653032	0.104992
0.388333	-0.066295	0.10578
0.3885	-0.0665637	0.10684
0.388667	-0.066341	0.108032
0.388833	-0.0656861	0.109373
0.389	-0.064727	0.111032
0.389167	-0.0634538	0.113228
0.389333	-0.0617565	0.115947
0.3895	-0.0597705	0.118869
0.389667	-0.0578017	0.121828
0.389833	-0.0559775	0.124713
0.39	-0.054595	0.127276
0.390167	-0.0544525	0.129477
0.390333	-0.0559011	0.131187
0.3905	-0.0583641	0.132055
0.390667	-0.0611205	0.132085
0.390833	-0.0636964	0.131385
0.391	-0.06587	0.130017
0.391167	-0.0676601	0.128538
0.391333	-0.0690359	0.127443
0.3915	-0.0699067	0.126518
0.391667	-0.0704022	0.1255
0.391833	-0.0707642	0.124517
0.392	-0.0711893	0.123647
0.392167	-0.0716452	0.12279
0.392333	-0.0718452	0.122061
0.3925	-0.0719387	0.121729
0.392667	-0.0724097	0.121727
0.392833	-0.073079	0.121808
0.393	-0.0733436	0.121931
0.393167	-0.0730026	0.122002
0.393333	-0.0720799	0.121863
0.3935	-0.0704661	0.121534
0.393667	-0.0681588	0.120979
0.393833	-0.0655614	0.120025
0.394	-0.0632991	0.118707
0.394167	-0.0617155	0.117421
0.394333	-0.0607556	0.116541
0.3945	-0.060334	0.116046
0.394667	-0.0605245	0.115919
0.394833	-0.061368	0.116387
0.395	-0.0625502	0.11734
0.395167	-0.063628	0.118373
0.395333	-0.0646318	0.119511
0.3955	-0.0656792	0.121016
0.395667	-0.0665478	0.122655
0.395833	-0.0673484	0.124051
0.396	-0.0684273	0.125498
0.396167	-0.0695611	0.127652
0.396333	-0.0703204	0.130736
0.3965	-0.0705824	0.134347
0.396667	-0.0703512	0.138079
0.396833	-0.0698284	0.141938
0.397	-0.069369	0.145894
0.397167	-0.0690546	0.149599
0.397333	-0.0687909	0.152578
0.3975	-0.0686117	0.154623
0.397667	-0.0684949	0.155992
0.397833	-0.0683172	0.157124
0.398	-0.0679982	0.158466
0.398167	-0.0673385	0.160319
0.398333	-0.0661026	0.162467
0.3985	-0.0644249	0.16432
0.398667	-0.0627151	0.165755
0.398833	-0.0611833	0.167095
0.399	-0.0598213	0.168327
0.399167	-0.0586838	0.169287
0.399333	-0.0577693	0.170056
0.3995	-0.0568139	0.17082
0.399667	-0.0557068	0.171769
0.399833	-0.0546159	0.172945
0.4	-0.0534268	0.174118
0.400167	-0.0520129	0.174905
0.400333	-0.0507461	0.174904
0.4005	-0.0500861	0.174073
0.400667	-0.0501378	0.172936
0.400833	-0.0506297	0.171865
0.401	-0.0511191	0.170666
0.401167	-0.0513592	0.169284
0.401333	-0.0513467	0.168043
0.4015	-0.0510015	0.166852
0.401667	-0.0503603	0.165395
0.401833	-0.0497526	0.163843
0.402	-0.0492518	0.162103
0.402167	-0.0486146	0.15972
0.402333	-0.0477513	0.157
0.4025	-0.0468122	0.154588
0.402667	-0.0460838	0.152556
0.402833	-0.0457698	0.150907
0.403	-0.0455444	0.149689
0.403167	-0.0449159	0.148584
0.403333	-0.044153	0.147725
0.4035	-0.0437757	0.147828
0.403667	-0.0435045	0.148785
0.403833	-0.0425141	0.14968
0.404	-0.0405291	0.149513
0.404167	-0.0383783	0.147397
0.404333	-0.0368518	0.14313
0.4045	-0.0356213	0.137249
0.404667	-0.0341035	0.130395
0.404833	-0.0322538	0.122615
0.405	-0.030499	0.114114
0.405167	-0.0292709	0.106242
0.405333	-0.0283077	0.099892
0.4055	-0.0272485	0.0946407
0.405667	-0.0263845	0.0900138
0.405833	-0.0259356	0.0856011
0.406	-0.0255745	0.080804
0.406167	-0.025121	0.0755021
0.406333	-0.0249205	0.0698673
0.4065	-0.0251986	0.0638281
0.406667	-0.0255469	0.0574876
0.406833	-0.0254769	0.0511016
0.407	-0.0251996	0.0444334
0.407167	-0.0250445	0.036845
0.407333	-0.0250108	0.028363
0.4075	-0.0252354	0.0194989
0.407667	-0.0256935	0.0106054
0.407833	-0.0262951	0.00252387
0.408	-0.027063	-0.00403831
0.408167	-0.0277778	-0.00922159
0.408333	-0.0283093	-0.0132819
0.4085	-0.0286007	-0.016345
0.408667	-0.0284513	-0.0183201
0.408833	-0.027786	-0.0187464
0.409	-0.0266962	-0.0172871
0.409167	-0.0251398	-0.0143619
0.409333	-0.0229741	-0.0107255
0.4095	-0.020518	-0.0067167
0.409667	-0.0183795	-0.00264407
0.409833	-0.0167696	0.001173
0.41	-0.01553	0.00484438
0.410167	-0.0145784	0.00845835
0.410333	-0.0142557	0.0118555
0.4105	-0.0147054	0.0149572
0.410667	-0.0153447	0.0176508
0.410833	-0.015803	0.0196825
0.411	-0.0163228	0.0212185
0.411167	-0.0170978	0.0228831
0.411333	-0.0179741	0.0249378
0.4115	-0.018649	0.0272492
0.411667	-0.0189381	0.029803
0.411833	-0.0189015	0.0324482
0.412	-0.0187019	0.034731
0.412167	-0.0184382	0.0364572
0.412333	-0.0182282	0.0376754
0.4125	-0.0180818	0.0385068
0.412667	-0.0178285	0.0394585
0.412833	-0.0174168	0.0408276
0.413	-0.0170406	0.0422441
0.413167	-0.0169811	0.0435895
0.413333	-0.0172397	0.0450938
0.4135	-0.0176938	0.0465362
0.413667	-0.0184452	0.0475351
0.413833	-0.0192718	0.0478443
0.414	-0.0196388	0.0473188
0.414167	-0.00823975	-0.231934
0.414333	-0.00827039	-0.23186
0.4145	-0.00830597	-0.231641
0.414667	-0.00836024	-0.2315
0.414833	-0.0086489	-0.231769
0.415	-0.00905243	-0.232426
0.415167	-0.00912949	-0.233299
0.415333	-0.00891131	-0.234386
0.4155	-0.00873583	-0.235536
0.415667	-0.00865699	-0.236407
0.415833	-0.00860355	-0.236894
0.416	-0.00869328	-0.237035
0.416167	-0.0089718	-0.236789
0.416333	-0.00937966	-0.2361
0.4165	-0.0100338	-0.234913
0.416667	-0.0109344	-0.233165
0.416833	-0.0116386	-0.230927
0.417	-0.0116273	-0.228439
0.417167	-0.011072	-0.225936
0.417333	-0.0105375	-0.223666
0.4175	-0.010053	-0.221808
0.417667	-0.00956599	-0.220486
0.417833	-0.00945356	-0.219841
0.418	-0.00994586	-0.21973
0.418167	-0.01067	-0.219996
0.418333	-0.0110066	-0.220684
0.4185	-0.0107427	-0.221637
0.418667	-0.010017	-0.222603
0.418833	-0.00890014	-0.223427
0.419	-0.00741989	-0.223897
0.419167	-0.00596035	-0.223955
0.419333	-0.00514003	-0.223751
0.4195	-0.00508359	-0.223328
0.419667	-0.00543576	-0.222773
0.419833	-0.00583171	-0.22224
0.42	-0.00611972	-0.221438
0.420167	-0.00657279	-0.219954
0.420333	-0.00748756	-0.217947
0.4205	-0.00874138	-0.215835
0.420667	-0.0101609	-0.213831
0.420833	-0.0116095	-0.212057
0.421	-0.0127704	-0.210617
0.421167	-0.0132919	-0.209425
0.421333	-0.0131163	-0.208282
0.4215	-0.0124893	-0.207211
0.421667	-0.0115498	-0.206396
0.421833	-0.0103994	-0.205908
0.422	-0.00927982	-0.205597
0.422167	-0.00834342	-0.205214
0.422333	-0.00772845	-0.204743
0.4225	-0.0076019	-0.204106
0.422667	-0.00774972	-0.203059
0.422833	-0.00774904	-0.201722
0.423	-0.00757965	-0.200283
0.423167	-0.0074505	-0.198648
0.423333	-0.0075843	-0.196773
0.4235	-0.00830499	-0.194504
0.423667	-0.00954642	-0.191667
0.423833	-0.0106972	-0.188688
0.424	-0.0113727	-0.186225
0.424167	-0.0115419	-0.184414
0.424333	-0.0110849	-0.182956
0.4245	-0.0102016	-0.181452
0.424667	-0.0102621	-0.179584
0.424833	-0.0135399	-0.177425
0.425	-0.0217556	-0.175357
0.425167	-0.0349173	-0.173476
0.425333	-0.0511804	-0.171401
0.4255	-0.0681444	-0.16889
0.425667	-0.0843483	-0.16616
0.425833	-0.0989898	-0.163423
0.426	-0.111374	-0.160712
0.426167	-0.12121	-0.158216
0.426333	-0.128464	-0.156317
0.4265	-0.133118	-0.155075
0.426667	-0.135496	-0.15406
0.426833	-0.136292	-0.152973
0.427	-0.136273	-0.151742
0.427167	-0.13596	-0.150132
0.427333	-0.135581	-0.14812
0.4275	-0.135466	-0.146122
0.427667	-0.135824	-0.144465
0.427833	-0.136481	-0.143038
0.428	-0.137264	-0.141517
0.428167	-0.138011	-0.139684
0.428333	-0.13868	-0.137468
0.4285	-0.139442	-0.135171
0.428667	-0.140086	-0.133277
0.428833	-0.14013	-0.131738
0.429	-0.139462	-0.130269
0.429167	-0.138396	-0.128938
0.429333	-0.137486	-0.127882
0.4295	-0.137116	-0.127007
0.429667	-0.137086	-0.12613
0.429833	-0.136768	-0.12513
0.43	-0.135837	-0.124011
0.430167	-0.134691	-0.122947
0.430333	-0.133795	-0.122035
0.4305	-0.133154	-0.121079
0.430667	-0.132791	-0.120184
0.430833	-0.132641	-0.119817
0.431	-0.132167	-0.120014
0.431167	-0.131199	-0.120458
0.431333	-0.130127	-0.120977
0.4315	-0.129081	-0.121244
0.431667	-0.128097	-0.120802
0.431833	-0.127351	-0.119842
0.432	-0.126907	-0.11881
0.432167	-0.126688	-0.117351
0.432333	-0.126409	-0.114888
0.4325	-0.125833	-0.111709
0.432667	-0.125057	-0.10853
0.432833	-0.124276	-0.105734
0.433	-0.123531	-0.103531
0.433167	-0.122825	-0.102038
0.433333	-0.122325	-0.101091
0.4335	-0.122296	-0.100428
0.433667	-0.122872	-0.099964
0.433833	-0.123955	-0.0996343
0.434	-0.125222	-0.0991414
0.434167	-0.126222	-0.0981973
0.434333	-0.126702	-0.0967945
0.4345	-0.126772	-0.0950571
0.434667	-0.126685	-0.0931711
0.434833	-0.126411	-0.0913596
0.435	-0.125777	-0.0897047
0.435167	-0.125048	-0.0881729
0.435333	-0.124727	-0.0867388
0.4355	-0.124909	-0.0853785
0.435667	-0.125134	-0.0841563
0.435833	-0.124904	-0.0832373
0.436	-0.124216	-0.0826173
0.436167	-0.123266	-0.0820059
0.436333	-0.122155	-0.0810998
0.4365	-0.121069	-0.0798936
0.436667	-0.120091	-0.0786225
0.436833	-0.1192	-0.0772465
0.437	-0.118583	-0.0752946
0.437167	-0.118419	-0.0726461
0.437333	-0.118503	-0.0698371
0.4375	-0.118297	-0.0672858
0.437667	-0.117409	-0.065129
0.437833	-0.116128	-0.0636132
0.438	-0.115129	-0.0627159
0.438167	-0.114567	-0.0619931
0.438333	-0.114026	-0.061183
0.4385	-0.113344	-0.0601797
0.438667	-0.112792	-0.058845
0.438833	-0.112479	-0.0573744
0.439	-0.112461	-0.0560818
0.439167	-0.112994	-0.0550563
0.439333	-0.11412	-0.0543457
0.4395	-0.115561	-0.0539248
0.439667	-0.116971	-0.0536561
0.439833	-0.11799	-0.0535249
0.44	-0.118396	-0.0534987
0.440167	-0.118191	-0.0533395
0.440333	-0.117434	-0.0530344
0.4405	-0.116346	-0.052746
0.440667	-0.115342	-0.0522463
0.440833	-0.114675	-0.0512468
0.441	-0.11451	-0.0499702
0.441167	-0.114883	-0.0488085
0.441333	-0.115344	-0.0477218
0.4415	-0.115488	-0.046409
0.441667	-0.115434	-0.0449463
0.441833	-0.1154	-0.0435846
0.442	-0.115534	-0.0421459
0.442167	-0.115967	-0.0404729
0.442333	-0.116557	-0.0389313
0.4425	-0.117048	-0.0378428
0.442667	-0.117374	-0.0371938
0.442833	-0.11761	-0.036946
0.443	-0.11801	-0.0368897
0.443167	-0.11882	-0.0367156
0.443333	-0.119876	-0.0364615
0.4435	-0.120833	-0.0363849
0.443667	-0.121657	-0.0365203
0.443833	-0.122305	-0.0364926
0.444	-0.12245	-0.0359152
0.444167	-0.122022	-0.03486
0.444333	-0.12131	-0.0336138
0.4445	-0.120553	-0.0322534
0.444667	-0.119705	-0.0307144
0.444833	-0.118457	-0.0290803
0.445	-0.116672	-0.0274921
0.445167	-0.114649	-0.0259873
0.445333	-0.112839	-0.0247549
0.4455	-0.111494	-0.0238942
0.445667	-0.110586	-0.0231083
0.445833	-0.109995	-0.0222556
0.446	-0.109483	-0.0213122
0.446167	-0.108829	-0.0199819
0.446333	-0.108169	-0.0182651
0.4465	-0.107587	-0.016604
0.446667	-0.107078	-0.0152284
0.446833	-0.106926	-0.0141219
0.447	-0.107298	-0.0132523
0.447167	-0.108128	-0.0123962
0.447333	-0.109438	-0.0111578
0.4475	-0.111053	-0.00964497
0.447667	-0.11249	-0.00844549
0.447833	-0.113427	-0.00748811
0.448	-0.113907	-0.00635229
0.448167	-0.114142	-0.00525455
0.448333	-0.114402	-0.00441651
0.4485	-0.114842	-0.00368364
0.448667	-0.115294	-0.00306482
0.448833	-0.115552	-0.0025137
0.449	-0.115757	-0.00171318
0.449167	-0.116248	-0.000608647
0.449333	-0.117037	0.000583734
0.4495	-0.117598	0.00165086
0.449667	-0.117275	0.00248453
0.449833	-0.115701	0.00322408
0.45	-0.11307	0.00407063
0.450167	-0.110077	0.00509553
0.450333	-0.107141	0.00614635
0.4505	-0.104184	0.00693325
0.450667	-0.101445	0.00743866
0.450833	-0.0994877	0.00799261
0.451	-0.0984043	0.00884576
0.451167	-0.0979374	0.00998161
0.451333	-0.0979586	0.0113607
0.4515	-0.0982299	0.012828
0.451667	-0.0984129	0.0139519
0.451833	-0.098445	0.0144651
0.452	-0.0983409	0.0145822
0.452167	-0.0980782	0.0146014
0.452333	-0.0977962	0.0143906
0.4525	-0.097555	0.0136817
0.452667	-0.0971695	0.0126367
0.452833	-0.0965875	0.0115888
0.453	-0.0957791	0.0107213
0.453167	-0.0944309	0.0102046
0.453333	-0.0926303	0.0101077
0.4535	-0.0910519	0.0103858
0.453667	-0.0899328	0.011023
0.453833	-0.0888488	0.0120109
0.454	-0.0876599	0.0134263
0.454167	-0.0866954	0.0152719
0.454333	-0.086038	0.0172818
0.4545	-0.0855323	0.019254
0.454667	-0.0852749	0.0214359
0.454833	-0.085369	0.0241714
0.455	-0.0854909	0.0272016
0.455167	-0.0851613	0.0298771
0.455333	-0.0843049	0.0318589
0.4555	-0.0833758	0.0331507
0.455667	-0.082781	0.0337493
0.455833	-0.0825097	0.0334936
0.456	-0.0823757	0.0321406
0.456167	-0.0822119	0.0299474
0.456333	-0.081993	0.0278022
0.4565	-0.0818055	0.0261972
0.456667	-0.0816286	0.0249817
0.456833	-0.0813011	0.0240709
0.457	-0.0808175	0.0235449
0.457167	-0.0804873	0.0234429
0.457333	-0.080576	0.02405
0.4575	-0.0810918	0.0259334
0.457667	-0.0817358	0.028913
0.457833	-0.082012	0.0317555
0.458	-0.0817972	0.0333442
0.458167	-0.0813706	0.0335905
0.458333	-0.081106	0.0333791
0.4585	-0.0811135	0.0332097
0.458667	-0.0808415	0.0323761
0.458833	-0.0798237	0.0302152
0.459	-0.0782133	0.0264819
0.459167	-0.0764564	0.0211329
0.459333	-0.0750101	0.0150428
0.4595	-0.0739161	0.00951806
0.459667	-0.0733013	0.00493463
0.459833	-0.0733252	-5.59278E-005
0.46	-0.0735545	-0.00692306
0.460167	-0.0740993	-0.0147607
0.460333	-0.0757895	-0.0215615
0.4605	-0.0787526	-0.0264891
0.460667	-0.0821836	-0.0296603
0.460833	-0.0851244	-0.0316648
0.461	-0.0869935	-0.0335384
0.461167	-0.0879333	-0.0359621
0.461333	-0.0888022	-0.0389239
0.4615	-0.0901994	-0.0423604
0.461667	-0.0917742	-0.0464445
0.461833	-0.0930972	-0.0515228
0.462	-0.0942077	-0.0575171
0.462167	-0.0949579	-0.0638564
0.462333	-0.0952206	-0.070208
0.4625	-0.0952354	-0.0765292
0.462667	-0.0949614	-0.0829605
0.462833	-0.0942544	-0.0893319
0.463	-0.0932836	-0.0947669
0.463167	-0.0921788	-0.0985519
0.463333	-0.0911013	-0.10095
0.4635	-0.0903424	-0.1028
0.463667	-0.0900755	-0.104339
0.463833	-0.0902804	-0.105267
0.464	-0.0907775	-0.105606
0.464167	-0.0913977	-0.105241
0.464333	-0.0920223	-0.103851
0.4645	-0.0924587	-0.101788
0.464667	-0.0926658	-0.0997107
0.464833	-0.0929237	-0.0976003
0.465	-0.0933467	-0.095136
0.465167	-0.093621	-0.0924832
0.465333	-0.0935694	-0.0897757
0.4655	-0.0933866	-0.0867173
0.465667	-0.0932446	-0.0834222
0.465833	-0.0931157	-0.0807302
0.466	-0.092981	-0.079052
0.466167	-0.0929209	-0.0779135
0.466333	-0.0927418	-0.0771146
0.4665	-0.0922004	-0.076757
0.466667	-0.0915132	-0.0763495
0.466833	-0.0908427	-0.075483
0.467	-0.0899734	-0.0743858
0.467167	-0.0888685	-0.0732286
0.467333	-0.0879037	-0.0719851
0.4675	-0.087621	-0.0705899
0.467667	-0.0883868	-0.0689889
0.467833	-0.089837	-0.06755
0.468	-0.091101	-0.0668822
0.468167	-0.0918989	-0.0672161
0.468333	-0.0926463	-0.0684353
0.4685	-0.0935587	-0.0702162
0.468667	-0.0944485	-0.0721775
0.468833	-0.0952584	-0.0744218
0.469	-0.0962585	-0.0772126
0.469167	-0.0976005	-0.0800809
0.469333	-0.0989192	-0.0824925
0.4695	-0.0996143	-0.0845953
0.469667	-0.0995351	-0.0864537
0.469833	-0.0992047	-0.0878222
0.47	-0.0990952	-0.0887973
0.470167	-0.0990871	-0.0898646
0.470333	-0.0988505	-0.0911873
0.4705	-0.0984435	-0.0923958
0.470667	-0.0981744	-0.0931644
0.470833	-0.0978744	-0.0934543
0.471	-0.0971251	-0.09342
0.471167	-0.0958783	-0.0932848
0.471333	-0.0943451	-0.0932122
0.4715	-0.0929414	-0.0931243
0.471667	-0.0921074	-0.0928252
0.471833	-0.0918528	-0.0924515
0.472	-0.0920761	-0.0923848
0.472167	-0.0927778	-0.0926613
0.472333	-0.0936136	-0.0927557
0.4725	-0.094217	-0.0923947
0.472667	-0.0945063	-0.0919915
0.472833	-0.0943014	-0.091955
0.473	-0.0935876	-0.0923099
0.473167	-0.0927212	-0.0927525
0.473333	-0.00488281	0.0747681
0.4735	-0.00480927	0.0748477
0.473667	-0.00441254	0.0750763
0.473833	-0.00349108	0.0753513
0.474	-0.00220294	0.0753889
0.474167	-0.00100377	0.0748729
0.474333	-0.000436015	0.0741106
0.4745	-0.000668152	0.0738768
0.474667	-0.00124139	0.0743746
0.474833	-0.001638	0.0752341
0.475	-0.0018527	0.0759869
0.475167	-0.00230121	0.0762431
0.475333	-0.00320073	0.0759518
0.4755	-0.00429271	0.0755412
0.475667	-0.00526104	0.0755406
0.475833	-0.0059252	0.0760175
0.476	-0.00619998	0.0767561
0.476167	-0.00610491	0.0778608
0.476333	-0.00551062	0.0795465
0.4765	-0.00422104	0.0816778
0.476667	-0.00245432	0.0839054
0.476833	-0.00076255	0.0858318
0.477	0.000506226	0.087251
0.477167	0.00149374	0.0883228
0.477333	0.00250348	0.0891471
0.4775	0.00356281	0.089446
0.477667	0.00449529	0.0890164
0.477833	0.00508152	0.0881417
0.478	0.00520862	0.0871439
0.478167	0.00509235	0.0860859
0.478333	0.00514192	0.085105
0.4785	0.00554513	0.0843074
0.478667	0.00606308	0.0836854
0.478833	0.00637398	0.0834589
0.479	0.0065455	0.0838412
0.479167	0.00693257	0.0846752
0.479333	0.00767804	0.0856645
0.4795	0.00840349	0.0865513
0.479667	0.00861655	0.0871663
0.479833	0.00841035	0.0875515
0.48	0.00825828	0.0877032
0.480167	0.00832475	0.0875336
0.480333	0.00840957	0.087239
0.4805	0.00829098	0.0870044
0.480667	0.00792276	0.0866187
0.480833	0.00743628	0.0859954
0.481	0.00707853	0.0854906
0.481167	0.00705883	0.085237
0.481333	0.00735556	0.0850915
0.4815	0.00777011	0.0853946
0.481667	0.00810433	0.0865801
0.481833	0.00819472	0.0883344
0.482	0.00795599	0.0901653
0.482167	0.00747021	0.0920209
0.482333	0.00698761	0.0938414
0.4825	0.00673579	0.0955298
0.482667	0.0066277	0.0972247
0.482833	0.00642434	0.0989347
0.483	0.00611493	0.100358
0.483167	0.00581753	0.101194
0.483333	0.0056559	0.101183
0.4835	0.00577207	0.100022
0.483667	0.00598352	0.0978924
0.483833	0.00583458	0.0955332
0.484	0.00532552	0.0935412
0.484167	0.00477963	0.0921223
0.484333	0.00405172	0.0910992
0.4845	0.0028059	0.0902344
0.484667	0.00121157	0.0898285
0.484833	-0.000251431	0.0901971
0.485	-0.00121236	0.0908856
0.485167	-0.00137576	0.0913562
0.485333	-0.00059167	0.0915021
0.4855	0.000798345	0.0912689
0.485667	0.00210981	0.0908908
0.485833	0.00298976	0.0908731
0.486	0.00359583	0.0912902
0.486167	0.00341986	0.091732
0.486333	0.000274325	0.0918416
0.4865	-0.00819407	0.0917048
0.486667	-0.0224295	0.0917213
0.486833	-0.0407888	0.0921658
0.487	-0.0606183	0.0929838
0.487167	-0.0796138	0.093945
0.487333	-0.0964137	0.0948289
0.4875	-0.110364	0.0953839
0.487667	-0.121354	0.0954688
0.487833	-0.129802	0.0952516
0.488	-0.13629	0.0948335
0.488167	-0.141129	0.0941548
0.488333	-0.144405	0.0934247
0.4885	-0.146176	0.0929593
0.488667	-0.14651	0.0928359
0.488833	-0.145667	0.0930766
0.489	-0.144194	0.0937704
0.489167	-0.142293	0.0946133
0.489333	-0.139737	0.0947732
0.4895	-0.136808	0.0939919
0.489667	-0.134309	0.0929517
0.489833	-0.132766	0.0920496
0.49	-0.132326	0.0910329
0.490167	-0.132765	0.0898281
0.490333	-0.133541	0.0887282
0.4905	-0.134332	0.0876736
0.490667	-0.134981	0.086218
0.490833	-0.13539	0.0843279
0.491	-0.135735	0.0824153
0.491167	-0.136169	0.0808257
0.491333	-0.136609	0.0796444
0.4915	-0.137053	0.0787281
0.491667	-0.137519	0.078
0.491833	-0.137852	0.0775187
0.492	-0.138115	0.0772832
0.492167	-0.138423	0.0773591
0.492333	-0.138582	0.0777635
0.4925	-0.138546	0.0782235
0.492667	-0.138432	0.0785413
0.492833	-0.138147	0.0787667
0.493	-0.137525	0.0786453
0.493167	-0.136583	0.0777595
0.493333	-0.135488	0.0764792
0.4935	-0.134406	0.075582
0.493667	-0.133518	0.0752354
0.493833	-0.132819	0.0752698
0.494	-0.132201	0.0756499
0.494167	-0.131627	0.0762947
0.494333	-0.13089	0.0768737
0.4945	-0.12985	0.0770819
0.494667	-0.128656	0.0770113
0.494833	-0.127533	0.0769267
0.495	-0.126748	0.0770668
0.495167	-0.126371	0.0776093
0.495333	-0.126096	0.078489
0.4955	-0.125517	0.0794407
0.495667	-0.124654	0.0800679
0.495833	-0.12401	0.0800137
0.496	-0.12379	0.0793431
0.496167	-0.123738	0.0784045
0.496333	-0.123619	0.0773695
0.4965	-0.123162	0.0764233
0.496667	-0.122149	0.0760389
0.496833	-0.120733	0.0763094
0.497	-0.119265	0.0766286
0.497167	-0.11815	0.0765062
0.497333	-0.117438	0.0760245
0.4975	-0.116709	0.0755227
0.497667	-0.115766	0.07522
0.497833	-0.114791	0.0752531
0.498	-0.114094	0.0758176
0.498167	-0.113817	0.0769165
0.498333	-0.113738	0.078319
0.4985	-0.113652	0.0798709
0.498667	-0.113568	0.0814797
0.498833	-0.113591	0.082959
0.499	-0.113943	0.0842549
0.499167	-0.114405	0.0855434
0.499333	-0.114343	0.086828
0.4995	-0.113759	0.0877495
0.499667	-0.113053	0.0879595
0.499833	-0.112467	0.0875064
0.5	-0.112299	0.0867319
0.500167	-0.112755	0.0858686
0.500333	-0.11368	0.0848645
0.5005	-0.114597	0.0836057
0.500667	-0.11502	0.082211
0.500833	-0.114656	0.0810619
0.501	-0.113498	0.0804629
0.501167	-0.111943	0.0804364
0.501333	-0.110472	0.0808895
0.5015	-0.109351	0.0816567
0.501667	-0.108673	0.0824902
0.501833	-0.10834	0.0831214
0.502	-0.108127	0.0833761
0.502167	-0.107774	0.083277
0.502333	-0.107078	0.0829895
0.5025	-0.10615	0.0827454
0.502667	-0.105388	0.0827447
0.502833	-0.10494	0.0830535
0.503	-0.10446	0.0835297
0.503167	-0.103611	0.0839526
0.503333	-0.102558	0.0844053
0.5035	-0.101551	0.0851043
0.503667	-0.100604	0.0857335
0.503833	-0.0998515	0.085771
0.504	-0.0994073	0.0853524
0.504167	-0.0993924	0.0850488
0.504333	-0.100218	0.0850763
0.5045	-0.101761	0.0850994
0.504667	-0.103107	0.084842
0.504833	-0.103564	0.0843824
0.505	-0.103081	0.0838119
0.505167	-0.102079	0.0833201
0.505333	-0.100958	0.0829734
0.5055	-0.0996921	0.0824414
0.505667	-0.0982264	0.0816124
0.505833	-0.0967994	0.0808374
0.506	-0.095524	0.08057
0.506167	-0.0942829	0.0809804
0.506333	-0.092998	0.0817742
0.5065	-0.0916963	0.0825723
0.506667	-0.0906661	0.083303
0.506833	-0.0902115	0.0839195
0.507	-0.0903219	0.0841988
0.507167	-0.0909512	0.0840676
0.507333	-0.0921753	0.0836288
0.5075	-0.0940564	0.0832055
0.507667	-0.0964284	0.0833227
0.507833	-0.0988449	0.0841509
0.508	-0.101078	0.0854176
0.508167	-0.103258	0.0867718
0.508333	-0.105426	0.0880611
0.5085	-0.107412	0.089291
0.508667	-0.108754	0.0903656
0.508833	-0.109017	0.0912298
0.509	-0.108487	0.0918896
0.509167	-0.107768	0.0922674
0.509333	-0.106948	0.0923541
0.5095	-0.105639	0.0921431
0.509667	-0.103588	0.0916172
0.509833	-0.101153	0.0908457
0.51	-0.0989243	0.0898623
0.510167	-0.0970622	0.088779
0.510333	-0.0953335	0.0877923
0.5105	-0.0935044	0.0869836
0.510667	-0.0917578	0.0863846
0.510833	-0.0905048	0.0860479
0.511	-0.0898038	0.0860842
0.511167	-0.0895622	0.0865835
0.511333	-0.0896713	0.0874561
0.5115	-0.0898189	0.0886023
0.511667	-0.0897831	0.0900339
0.511833	-0.089553	0.0916992
0.512	-0.0892045	0.093448
0.512167	-0.0889367	0.0951404
0.512333	-0.0888403	0.0966976
0.5125	-0.0887696	0.0981348
0.512667	-0.0887395	0.0993306
0.512833	-0.0890197	0.0999017
0.513	-0.0896664	0.0998302
0.513167	-0.0901836	0.0996955
0.513333	-0.090135	0.0999172
0.5135	-0.0898132	0.100399
0.513667	-0.0894769	0.100904
0.513833	-0.0889622	0.101224
0.514	-0.0884051	0.101168
0.514167	-0.0881658	0.10088
0.514333	-0.0883519	0.100762
0.5145	-0.0888877	0.100981
0.514667	-0.0895496	0.101425
0.514833	-0.0899756	0.101775
0.515	-0.0898607	0.101889
0.515167	-0.0890649	0.102008
0.515333	-0.0878719	0.102225
0.5155	-0.0868325	0.102463
0.515667	-0.086208	0.102708
0.515833	-0.0860162	0.102747
0.516	-0.0859519	0.102418
0.516167	-0.0855086	0.101984
0.516333	-0.0847845	0.101781
0.5165	-0.0843612	0.101945
0.516667	-0.0845204	0.102502
0.516833	-0.0852303	0.103548
0.517	-0.0863344	0.105199
0.517167	-0.0872288	0.10719
0.517333	-0.0872917	0.108939
0.5175	-0.0867733	0.11003
0.517667	-0.0861201	0.110374
0.517833	-0.0853347	0.110038
0.518	-0.0844418	0.109049
0.518167	-0.0833311	0.107524
0.518333	-0.081931	0.105839
0.5185	-0.080715	0.10434
0.518667	-0.0800581	0.103173
0.518833	-0.0798616	0.102312
0.519	-0.0799576	0.101625
0.519167	-0.0803132	0.101044
0.519333	-0.0810642	0.100595
0.5195	-0.0822597	0.100383
0.519667	-0.08354	0.100543
0.519833	-0.0845021	0.101076
0.52	-0.0851156	0.101695
0.520167	-0.0854193	0.102036
0.520333	-0.0853775	0.102186
0.5205	-0.085142	0.102555
0.520667	-0.084942	0.103158
0.520833	-0.0848055	0.103575
0.521	-0.0846287	0.103631
0.521167	-0.0843484	0.103621
0.521333	-0.0840057	0.103927
0.5215	-0.0837794	0.104495
0.521667	-0.0837254	0.104911
0.521833	-0.0835964	0.105147
0.522	-0.0832948	0.105652
0.522167	-0.0829374	0.106652
0.522333	-0.082487	0.107839
0.5225	-0.0819091	0.108756
0.522667	-0.0812651	0.109385
0.522833	-0.0805693	0.109943
0.523	-0.0799021	0.110417
0.523167	-0.0793744	0.110799
0.523333	-0.078905	0.111134
0.5235	-0.07848	0.1114
0.523667	-0.0782035	0.11146
0.523833	-0.0778237	0.110984
0.524	-0.0770834	0.10989
0.524167	-0.0762878	0.108328
0.524333	-0.0759926	0.106224
0.5245	-0.0764833	0.103653
0.524667	-0.0774937	0.100934
0.524833	-0.0785294	0.098192
0.525	-0.0794063	0.0956487
0.525167	-0.080068	0.0938602
0.525333	-0.0804589	0.0931224
0.5255	-0.0804669	0.0932708
0.525667	-0.0788988	0.094178
0.525833	-0.0735224	0.0957869
0.526	-0.0628691	0.0978575
0.526167	-0.047383	0.0999476
0.526333	-0.0291406	0.101502
0.5265	-0.0102712	0.102233
0.526667	0.00796244	0.102328
0.526833	0.0244402	0.102087
0.527	0.0380575	0.101779
0.527167	0.0483972	0.101587
0.527333	0.0558779	0.101363
0.5275	0.0611692	0.100971
0.527667	0.0645519	0.100692
0.527833	0.0661261	0.100796
0.528	0.066359	0.101052
0.528167	0.0660132	0.101072
0.528333	0.0657838	0.100768
0.5285	0.0658927	0.100194
0.528667	0.0660993	0.0993644
0.528833	0.0662295	0.0984135
0.529	0.0661042	0.0975528
0.529167	0.065402	0.096764
0.529333	0.0640371	0.0958824
0.5295	0.0622587	0.0948466
0.529667	0.0606461	0.0938075
0.529833	0.059778	0.093058
0.53	0.0595	0.0926832
0.530167	0.0592182	0.0924623
0.530333	0.0588526	0.0922905
0.5305	0.0586586	0.0922008
0.530667	0.0584922	0.0917786
0.530833	0.0578972	0.0906255
0.531	0.0567871	0.0891944
0.531167	0.0557729	0.0880984
0.531333	0.0554655	0.0875136
0.5315	0.0557159	0.0874999
0.531667	0.0561995	0.0877553
0.531833	0.0571371	0.0875868
0.532	0.0586461	0.0869025
0.532167	0.0601857	0.0864143
0.532333	0.0612168	0.0865447
0.5325	0.0617837	0.0869938
0.532667	0.062222	0.0874458
0.532833	0.0626162	0.0879246
0.533	0.0629871	0.088419
0.533167	0.063681	0.0886813
0.533333	0.0648328	0.0886328
0.5335	0.0660509	0.0885911
0.533667	0.0669378	0.0889984
0.533833	0.0671857	0.0900409
0.534	0.0665747	0.0914376
0.534167	0.0654438	0.0929249
0.534333	0.0644685	0.0945161
0.5345	0.0638859	0.0960953
0.534667	0.063455	0.0975154
0.534833	0.0629842	0.0988174
0.535	0.0626605	0.0999452
0.535167	0.0627269	0.10065
0.535333	0.0629461	0.100837
0.5355	0.0628597	0.100634
0.535667	0.0624431	0.100185
0.535833	0.0618362	0.0996755
0.536	0.0609229	0.0991069
0.536167	0.0597824	0.0981415
0.536333	0.0586123	0.0967663
0.5365	0.0573455	0.0957047
0.536667	0.0560206	0.0953889
0.536833	0.0548873	0.0953502
0.537	0.054207	0.0954677
0.537167	0.0541598	0.0961295
0.537333	0.0544735	0.0972711
0.5375	0.0547421	0.0986654
0.537667	0.0550338	0.10014
0.537833	0.0554088	0.101334
0.538	0.0556722	0.101982
0.538167	0.0556897	0.102222
0.538333	0.0554133	0.102327
0.5385	0.0547928	0.102424
0.538667	0.0537503	0.102686
0.538833	0.0524595	0.103313
0.539	0.0512236	0.104114
0.539167	0.0498953	0.104494
0.539333	0.0481304	0.104164
0.5395	0.0459453	0.103399
0.539667	0.0437581	0.102417
0.539833	0.0420825	0.101202
0.54	0.040943	0.0998316
0.540167	0.039957	0.0984533
0.540333	0.0390628	0.0972356
0.5405	0.0383116	0.0965192
0.540667	0.0374673	0.0966046
0.540833	0.0366005	0.0975038
0.541	0.0360401	0.0992082
0.541167	0.0356109	0.101513
0.541333	0.0350981	0.103808
0.5415	0.0348487	0.105681
0.541667	0.0351315	0.107231
0.541833	0.0358125	0.108736
0.542	0.0366389	0.110294
0.542167	0.0373698	0.111835
0.542333	0.0380174	0.113192
0.5425	0.0387066	0.114065
0.542667	0.039404	0.114311
0.542833	0.0401057	0.114051
0.543	0.0407722	0.113241
0.543167	0.0412707	0.111764
0.543333	0.0416337	0.109904
0.5435	0.0418192	0.108052
0.543667	0.0414655	0.106274
0.543833	0.0405001	0.104405
0.544	0.0393427	0.102505
0.544167	0.0384124	0.101191
0.544333	0.0381929	0.100334
0.5445	0.0390106	0.0986872
0.544667	0.0404034	0.096077
0.544833	0.0416853	0.0937149
0.545	0.0426766	0.0923696
0.545167	0.0433469	0.092005
0.545333	0.0437636	0.0925561
0.5455	0.0442415	0.0930803
0.545667	0.0446038	0.0928034
0.545833	0.0440234	0.0933956
0.546	0.0425355	0.0949574
0.546167	0.0412227	0.094049
0.546333	0.0400724	0.0886878
0.5465	0.038132	0.0804296
0.546667	0.0355957	0.0718534
0.546833	0.0334447	0.0637376
0.547	0.0320201	0.0555334
0.547167	0.0312861	0.0478518
0.547333	0.0313114	0.0421765
0.5475	0.0317787	0.0388507
0.547667	0.0322589	0.0369922
0.547833	0.0328193	0.0360341
0.548	0.0337905	0.0357303
0.548167	0.0356152	0.0350922
0.548333	0.0382207	0.0334146
0.5485	0.0405782	0.0308987
0.548667	0.0419745	0.0271279
0.548833	0.0424644	0.0212372
0.549	0.0421008	0.0134
0.549167	0.0410965	0.00444155
0.549333	0.0396945	-0.00511703
0.5495	0.0379969	-0.0143723
0.549667	0.0363503	-0.0221685
0.549833	0.0349607	-0.0287645
0.55	0.033688	-0.0352007
0.550167	0.032231	-0.0415201
0.550333	0.0302949	-0.0468769
0.5505	0.0281457	-0.0509041
0.550667	0.0265595	-0.0545458
0.550833	0.0255783	-0.0583586
0.551	0.0243346	-0.061405
0.551167	0.0228508	-0.063145
0.551333	0.0219575	-0.0640424
0.5515	0.0215512	-0.0643947
0.551667	0.0210426	-0.0641118
0.551833	0.0202825	-0.0631193
0.552	0.0191034	-0.0616535
0.552167	0.0174316	-0.0601306
0.552333	0.0157989	-0.0585892
0.5525	0.014739	-0.0569759
0.552667	0.0140582	-0.0555197
0.552833	0.0134361	-0.0544405
0.553	0.0132632	-0.054033
0.553167	0.0137478	-0.0542239
0.553333	0.0144374	-0.0544521
0.5535	0.0153133	-0.0544348
0.553667	0.0163671	-0.0539059
0.553833	0.0171377	-0.0526562
0.554	0.0177875	-0.0513757
0.554167	0.0187058	-0.0505337
0.554333	0.0196614	-0.0495257
0.5545	0.0204108	-0.0483881
0.554667	0.0209556	-0.047792
0.554833	0.0211783	-0.0476278
0.555	0.0210356	-0.0473737
0.555167	0.0207007	-0.0465922
0.555333	0.0203184	-0.0452654
0.5555	0.0200835	-0.0440634
0.555667	0.0200234	-0.0432953
0.555833	0.0196756	-0.0422911
0.556	0.0189017	-0.0404378
0.556167	0.0181556	-0.0379436
0.556333	0.017377	-0.0353124
0.5565	0.0162601	-0.0326086
0.556667	0.0151754	-0.0297505
0.556833	0.0144435	-0.027256
0.557	0.0136474	-0.0256119
0.557167	0.0122918	-0.0245654
0.557333	0.0106006	-0.0235512
0.5575	0.00930789	-0.0221795
0.557667	0.00879146	-0.0207132
0.557833	0.00866723	-0.0192489
0.558	0.00860225	-0.01745
0.558167	0.00872758	-0.0159364
0.558333	0.00875651	-0.0151687
0.5585	0.107422	-0.0234985
0.558667	0.107336	-0.0232595
0.558833	0.107098	-0.0224267
0.559	0.106824	-0.0211208
0.559167	0.106537	-0.0195855
0.559333	0.106185	-0.0177141
0.5595	0.1059	-0.0155383
0.559667	0.105741	-0.013428
0.559833	0.105614	-0.0116272
0.56	0.105544	-0.0101267
0.560167	0.105625	-0.00890246
0.560333	0.105882	-0.0078864
0.5605	0.10641	-0.0069261
0.560667	0.107302	-0.00596225
0.560833	0.108325	-0.00507967
0.561	0.109068	-0.00438754
0.561167	0.109271	-0.0039283
0.561333	0.108793	-0.0037411
0.5615	0.107727	-0.00390276
0.561667	0.106467	-0.00419548
0.561833	0.105374	-0.00411359
0.562	0.104641	-0.00362031
0.562167	0.104309	-0.00291508
0.562333	0.104224	-0.0017322
0.5625	0.104132	-0.000178687
0.562667	0.10392	0.00115677
0.562833	0.103692	0.00232479
0.563	0.103422	0.00351223
0.563167	0.103007	0.0044819
0.563333	0.102574	0.00527693
0.5635	0.102153	0.00617801
0.563667	0.101503	0.00717279
0.563833	0.100434	0.0079271
0.564	0.0989677	0.00824596
0.564167	0.0973949	0.00844383
0.564333	0.0961927	0.00881786
0.5645	0.0956864	0.00930547
0.564667	0.0958019	0.00991256
0.564833	0.0962762	0.010621
0.565	0.0969425	0.0111292
0.565167	0.097562	0.0112905
0.565333	0.0978136	0.0111856
0.5655	0.097662	0.0108633
0.565667	0.0972518	0.0105132
0.565833	0.0967515	0.0102103
0.566	0.0964666	0.00972292
0.566167	0.0965817	0.0092483
0.566333	0.0969318	0.00950643
0.5665	0.0972452	0.0108695
0.566667	0.0975405	0.013083
0.566833	0.0979475	0.0155108
0.567	0.0982097	0.0175379
0.567167	0.0979717	0.0190102
0.567333	0.0972913	0.0199411
0.5675	0.096541	0.0202233
0.567667	0.0961494	0.0200545
0.567833	0.0963748	0.020039
0.568	0.0971616	0.0206502
0.568167	0.098282	0.0218716
0.568333	0.0993671	0.0233556
0.5685	0.0998826	0.0247845
0.568667	0.099544	0.0259776
0.568833	0.0986421	0.0267826
0.569	0.0977025	0.0271637
0.569167	0.0969492	0.0273221
0.569333	0.0964064	0.0275823
0.5695	0.0962261	0.0280892
0.569667	0.0963296	0.0286645
0.569833	0.0962512	0.029121
0.57	0.0958236	0.0295259
0.570167	0.0953043	0.0299633
0.570333	0.0946821	0.0303497
0.5705	0.0938908	0.0306293
0.570667	0.0933671	0.0307629
0.570833	0.0934555	0.0307124
0.571	0.0939844	0.0307624
0.571167	0.0947167	0.0313203
0.571333	0.0955879	0.0323613
0.5715	0.0965395	0.033653
0.571667	0.0974234	0.0350937
0.571833	0.0980089	0.0364468
0.572	0.0979271	0.0373653
0.572167	0.096958	0.0376923
0.572333	0.0954182	0.0374482
0.5725	0.0937831	0.0367901
0.572667	0.0923653	0.036048
0.572833	0.0914644	0.0353056
0.573	0.0911817	0.0341629
0.573167	0.091349	0.0325918
0.573333	0.0916932	0.0310928
0.5735	0.0920253	0.0297114
0.573667	0.0924945	0.0282039
0.573833	0.0932897	0.0267181
0.574	0.0943466	0.025525
0.574167	0.095517	0.024781
0.574333	0.0966233	0.0245317
0.5745	0.097477	0.0247424
0.574667	0.0979899	0.0254212
0.574833	0.0982246	0.0265355
0.575	0.098213	0.0282135
0.575167	0.0979402	0.0308231
0.575333	0.0975034	0.0343536
0.5755	0.097015	0.0381421
0.575667	0.0965142	0.0414301
0.575833	0.0958864	0.0441331
0.576	0.0949825	0.046593
0.576167	0.0938698	0.0486013
0.576333	0.0926086	0.0497543
0.5765	0.0912859	0.05026
0.576667	0.0902936	0.0504325
0.576833	0.0897767	0.050163
0.577	0.0895144	0.0492332
0.577167	0.0895957	0.0477464
0.577333	0.0901789	0.0460279
0.5775	0.0909881	0.0442314
0.577667	0.0916505	0.0424312
0.577833	0.0920368	0.0407487
0.578	0.0921292	0.0391972
0.578167	0.0920686	0.0377255
0.578333	0.0922518	0.0362763
0.5785	0.0928464	0.0348536
0.578667	0.0935711	0.0335072
0.578833	0.0941006	0.0321706
0.579	0.0942477	0.0307394
0.579167	0.0939785	0.0292583
0.579333	0.093329	0.0279744
0.5795	0.0923469	0.0271225
0.579667	0.091255	0.0268673
0.579833	0.0902721	0.0273707
0.58	0.0894567	0.0284489
0.580167	0.0888569	0.029711
0.580333	0.0884008	0.0310816
0.5805	0.0879386	0.0326201
0.580667	0.0875464	0.0341243
0.580833	0.0874022	0.0351608
0.581	0.0874654	0.0354342
0.581167	0.0876075	0.0349448
0.581333	0.0878134	0.0339138
0.5815	0.0879454	0.0328571
0.581667	0.0879093	0.0324758
0.581833	0.0882523	0.0334712
0.582	0.0897242	0.0367161
0.582167	0.0923349	0.0432022
0.582333	0.0954295	0.0532561
0.5825	0.0984633	0.0658629
0.582667	0.101312	0.078892
0.582833	0.10363	0.0900604
0.583	0.104919	0.0980046
0.583167	0.105468	0.102654
0.583333	0.105892	0.10469
0.5835	0.106225	0.10467
0.583667	0.106173	0.102782
0.583833	0.105609	0.0992842
0.584	0.104584	0.0948204
0.584167	0.103161	0.090163
0.584333	0.101648	0.0857066
0.5845	0.100534	0.0814552
0.584667	0.0999932	0.0775296
0.584833	0.0996608	0.0745574
0.585	0.0987473	0.0734343
0.585167	0.0968542	0.074384
0.585333	0.0943501	0.0765439
0.5855	0.0916308	0.0789508
0.585667	0.0890287	0.0814332
0.585833	0.0870234	0.0840955
0.586	0.0859051	0.0866164
0.586167	0.0856968	0.0884396
0.586333	0.0860765	0.0892093
0.5865	0.0865454	0.0890638
0.586667	0.0870339	0.0883981
0.586833	0.0875385	0.0872931
0.587	0.0877188	0.0857254
0.587167	0.0874744	0.0839746
0.587333	0.0869344	0.0823635
0.5875	0.0859539	0.0810695
0.587667	0.0843959	0.0802483
0.587833	0.0824762	0.0799739
0.588	0.0805033	0.0800907
0.588167	0.0787958	0.0802897
0.588333	0.0775672	0.0804088
0.5885	0.0766218	0.0803876
0.588667	0.0757318	0.0800819
0.588833	0.0749426	0.0795815
0.589	0.0742141	0.0790946
0.589167	0.073485	0.0786187
0.589333	0.072814	0.0782309
0.5895	0.0722649	0.0779921
0.589667	0.0719913	0.0777086
0.589833	0.071904	0.0773274
0.59	0.0717043	0.0770122
0.590167	0.0713994	0.0768259
0.590333	0.0710516	0.0769823
0.5905	0.070551	0.0778364
0.590667	0.0699007	0.0791734
0.590833	0.0693476	0.0803695
0.591	0.0690667	0.0811585
0.591167	0.0691178	0.0816353
0.591333	0.0697209	0.0818246
0.5915	0.0707399	0.0817223
0.591667	0.071625	0.0816374
0.591833	0.0722429	0.0817789
0.592	0.0728481	0.0817967
0.592167	0.0736295	0.0814642
0.592333	0.0745531	0.0811114
0.5925	0.0754874	0.0811416
0.592667	0.0764762	0.0817216
0.592833	0.0775738	0.0827484
0.593	0.078659	0.0838936
0.593167	0.0796798	0.0848571
0.593333	0.0806876	0.0856575
0.5935	0.0815571	0.0865707
0.593667	0.0820964	0.087667
0.593833	0.0823806	0.088627
0.594	0.0825949	0.0893183
0.594167	0.0827287	0.0900086
0.594333	0.082696	0.0907224
0.5945	0.0824917	0.0914062
0.594667	0.0821386	0.092543
0.594833	0.0815713	0.0945346
0.595	0.0807039	0.0971352
0.595167	0.0797873	0.099856
0.595333	0.0792436	0.102423
0.5955	0.0791912	0.104747
0.595667	0.0795684	0.106758
0.595833	0.0802459	0.108635
0.596	0.0809452	0.110532
0.596167	0.0813632	0.112142
0.596333	0.0813957	0.113248
0.5965	0.0812089	0.114109
0.596667	0.0810375	0.11486
0.596833	0.0811043	0.11535
0.597	0.0815452	0.115616
0.597167	0.0822457	0.115662
0.597333	0.08294	0.115274
0.5975	0.0833418	0.114548
0.597667	0.0833274	0.113939
0.597833	0.0830719	0.113662
0.598	0.0827864	0.113455
0.598167	0.0824863	0.113016
0.598333	0.0820783	0.112395
0.5985	0.0815359	0.111769
0.598667	0.0809385	0.111128
0.598833	0.0804275	0.110383
0.599	0.0802457	0.109459
0.599167	0.0805227	0.10839
0.599333	0.0809489	0.107351
0.5995	0.0812406	0.106433
0.599667	0.0815941	0.105721
0.599833	0.0821305	0.105328
0.6	0.0826553	0.105122
0.600167	0.0830141	0.104972
0.600333	0.0830843	0.104925
0.6005	0.0828412	0.104998
0.600667	0.082521	0.105301
0.600833	0.0823977	0.106033
0.601	0.0825882	0.107208
0.601167	0.0831302	0.108599
0.601333	0.0839093	0.10991
0.6015	0.0845694	0.110981
0.601667	0.0848856	0.111712
0.601833	0.0849253	0.112027
0.602	0.0847416	0.112116
0.602167	0.0844539	0.11236
0.602333	0.0844228	0.112634
0.6025	0.084755	0.112429
0.602667	0.084981	0.111815
0.602833	0.084667	0.111227
0.603	0.0838299	0.110668
0.603167	0.082706	0.110036
0.603333	0.0816172	0.109531
0.6035	0.0808224	0.109252
0.603667	0.0804023	0.108963
0.603833	0.0802626	0.108427
0.604	0.0801484	0.107733
0.604167	0.0799922	0.107147
0.604333	0.0799811	0.106701
0.6045	0.0802478	0.106154
0.604667	0.080757	0.105323
0.604833	0.0812398	0.104088
0.605	0.0814096	0.102369
0.605167	0.0811749	0.100385
0.605333	0.0806017	0.0983916
0.6055	0.0797777	0.0964961
0.605667	0.0786752	0.0950366
0.605833	0.077544	0.0942253
0.606	0.0770123	0.0936619
0.606167	0.077294	0.0928737
0.606333	0.0779152	0.0918883
0.6065	0.0783978	0.0910333
0.606667	0.0787345	0.0903305
0.606833	0.0790056	0.0894632
0.607	0.0790168	0.0885968
0.607167	0.078793	0.0882909
0.607333	0.0787	0.0883629
0.6075	0.0788516	0.0882546
0.607667	0.0789456	0.0880947
0.607833	0.0786335	0.0880861
0.608	0.0780616	0.0878993
0.608167	0.0777244	0.0873989
0.608333	0.07781	0.0869459
0.6085	0.0780863	0.0867925
0.608667	0.0783525	0.0868927
0.608833	0.0787439	0.087129
0.609	0.0793619	0.087305
0.609167	0.0800941	0.0871401
0.609333	0.0807609	0.0864879
0.6095	0.0810994	0.0854529
0.609667	0.0810898	0.083937
0.609833	0.0810354	0.0816461
0.61	0.0811835	0.0789073
0.610167	0.0817131	0.0762791
0.610333	0.0826961	0.0736754
0.6105	0.083897	0.0708554
0.610667	0.0849328	0.0680313
0.610833	0.0855711	0.0654805
0.611	0.0858481	0.0631688
0.611167	0.086055	0.0611288
0.611333	0.0864393	0.059243
0.6115	0.0868637	0.0570193
0.611667	0.0870957	0.0545184
0.611833	0.0871797	0.0517588
0.612	0.0871742	0.0475411
0.612167	0.086977	0.0407599
0.612333	0.0866726	0.0311632
0.6125	0.0864465	0.018393
0.612667	0.0862582	0.00235193
0.612833	0.086287	-0.0161836
0.613	0.086661	-0.0361047
0.613167	0.0867851	-0.0561843
0.613333	0.0863897	-0.0750958
0.6135	0.0860299	-0.091641
0.613667	0.0859793	-0.104874
0.613833	0.0861739	-0.114141
0.614	0.0868473	-0.118833
0.614167	0.0882761	-0.118382
0.614333	0.0903382	-0.112855
0.6145	0.0925243	-0.103199
0.614667	0.0943569	-0.0909835
0.614833	0.0957665	-0.0780842
0.615	0.0969143	-0.0660213
0.615167	0.097808	-0.0557949
0.615333	0.0982587	-0.0484992
0.6155	0.0981193	-0.0450358
0.615667	0.0974166	-0.0453809
0.615833	0.0963417	-0.0489558
0.616	0.0950715	-0.0551115
0.616167	0.0935391	-0.0628324
0.616333	0.0918207	-0.0708571
0.6165	0.0903233	-0.0783523
0.616667	0.0890512	-0.0850652
0.616833	0.0877131	-0.0909333
0.617	0.0864034	-0.0957514
0.617167	0.0853766	-0.0994785
0.617333	0.0846503	-0.102525
0.6175	0.0839546	-0.105142
0.617667	0.0829236	-0.106844
0.617833	0.0815093	-0.107075
0.618	0.0800607	-0.106215
0.618167	0.0787495	-0.105105
0.618333	0.077552	-0.10396
0.6185	0.0766707	-0.102523
0.618667	0.0762714	-0.100702
0.618833	0.0761642	-0.0985971
0.619	0.0759956	-0.0962706
0.619167	0.0757214	-0.0936825
0.619333	0.0755241	-0.0907546
0.6195	0.0754472	-0.0875253
0.619667	0.0755333	-0.0843744
0.619833	0.0759622	-0.0817781
0.62	0.0768768	-0.0798012
0.620167	0.0781213	-0.0782946
0.620333	0.0793671	-0.0771186
0.6205	0.0804218	-0.0760041
0.620667	0.0812017	-0.0747794
0.620833	0.0815711	-0.0734415
0.621	0.0814148	-0.0719239
0.621167	0.0808909	-0.070027
0.621333	0.0801672	-0.0676897
0.6215	0.0791101	-0.0653376
0.621667	0.0777463	-0.0633671
0.621833	-0.0463867	-0.0549316
0.622	-0.046399	-0.0547845
0.622167	-0.0464242	-0.0543037
0.622333	-0.0464068	-0.0537148
0.6225	-0.0462775	-0.053349
0.622667	-0.0460012	-0.053021
0.622833	-0.0455178	-0.0522041
0.623	-0.0447567	-0.0507165
0.623167	-0.0437805	-0.0490224
0.623333	-0.0428551	-0.0474975
0.6235	-0.042288	-0.0460565
0.623667	-0.0421677	-0.0446931
0.623833	-0.0424173	-0.0434522
0.624	-0.0429268	-0.0423957
0.624167	-0.0435744	-0.0417385
0.624333	-0.0442953	-0.0415004
0.6245	-0.0450115	-0.041489
0.624667	-0.0455935	-0.0415686
0.624833	-0.0458833	-0.0417861
0.625	-0.0457971	-0.0422033
0.625167	-0.0454827	-0.0425739
0.625333	-0.0450228	-0.0425296
0.6255	-0.0442735	-0.0421
0.625667	-0.0433254	-0.0416418
0.625833	-0.0424668	-0.0411285
0.626	-0.0418082	-0.0402105
0.626167	-0.0414288	-0.0389473
0.626333	-0.0413448	-0.0377358
0.6265	-0.0414998	-0.0366671
0.626667	-0.0419979	-0.0354387
0.626833	-0.0426883	-0.0339553
0.627	-0.0430604	-0.0324949
0.627167	-0.0428676	-0.0311911
0.627333	-0.0421747	-0.0299761
0.6275	-0.0411678	-0.0288175
0.627667	-0.0401139	-0.0275981
0.627833	-0.0390839	-0.0263336
0.628	-0.0380539	-0.0253133
0.628167	-0.037266	-0.0245193
0.628333	-0.0369909	-0.0237627
0.6285	-0.0371585	-0.0232807
0.628667	-0.0374374	-0.0233017
0.628833	-0.0374955	-0.0236987
0.629	-0.0371745	-0.0243233
0.629167	-0.0365319	-0.0250254
0.629333	-0.0358144	-0.0256839
0.6295	-0.0352168	-0.0264149
0.629667	-0.0347013	-0.0272806
0.629833	-0.0341877	-0.0279978
0.63	-0.0336678	-0.0282985
0.630167	-0.0332897	-0.0282468
0.630333	-0.0332903	-0.0279609
0.6305	-0.033644	-0.02737
0.630667	-0.034061	-0.0264288
0.630833	-0.0342889	-0.0254305
0.631	-0.0342915	-0.0249231
0.631167	-0.0341861	-0.0250165
0.631333	-0.0340751	-0.0251873
0.6315	-0.033951	-0.0251551
0.631667	-0.0336814	-0.0251852
0.631833	-0.0331808	-0.0254797
0.632	-0.0325968	-0.0259261
0.632167	-0.0320737	-0.0264096
0.632333	-0.0315396	-0.0270497
0.6325	-0.0309128	-0.0280024
0.632667	-0.0301787	-0.0292443
0.632833	-0.0293797	-0.0306089
0.633	-0.028689	-0.0318689
0.633167	-0.0281907	-0.0328687
0.633333	-0.0277884	-0.033603
0.6335	-0.0274065	-0.0342673
0.633667	-0.0269456	-0.0351581
0.633833	-0.0264774	-0.0363189
0.634	-0.0263484	-0.0376147
0.634167	-0.0266435	-0.0389665
0.634333	-0.027285	-0.0402272
0.6345	-0.028336	-0.0413712
0.634667	-0.0295714	-0.0426732
0.634833	-0.0306235	-0.0441926
0.635	-0.0315533	-0.0455946
0.635167	-0.0324892	-0.0466308
0.635333	-0.0331762	-0.0472022
0.6355	-0.0335258	-0.047209
0.635667	-0.0337106	-0.0468163
0.635833	-0.0335603	-0.0465177
0.636	-0.0330051	-0.0465057
0.636167	-0.0323756	-0.046372
0.636333	-0.0316939	-0.045791
0.6365	-0.0306658	-0.0450679
0.636667	-0.0291611	-0.0446059
0.636833	-0.0273245	-0.0442504
0.637	-0.0256125	-0.0437283
0.637167	-0.024498	-0.0429389
0.637333	-0.0238501	-0.0411836
0.6375	-0.0227751	-0.0369702
0.637667	-0.0202132	-0.0288529
0.637833	-0.0157943	-0.0162487
0.638	-0.0102759	0.000212451
0.638167	-0.00503499	0.0189401
0.638333	-0.000969196	0.0377884
0.6385	0.00175898	0.054342
0.638667	0.00310988	0.0666172
0.638833	0.00310125	0.0739491
0.639	0.00219082	0.0769701
0.639167	0.000995812	0.0766346
0.639333	-0.000359237	0.0736831
0.6395	-0.00191032	0.0688621
0.639667	-0.00327253	0.062923
0.639833	-0.00423871	0.0565968
0.64	-0.00518586	0.0507697
0.640167	-0.00655342	0.0460861
0.640333	-0.00836265	0.042506
0.6405	-0.0102301	0.0396638
0.640667	-0.0118501	0.037284
0.640833	-0.0130402	0.0350734
0.641	-0.013522	0.0327749
0.641167	-0.0133577	0.0306108
0.641333	-0.012976	0.029099
0.6415	-0.0125346	0.028317
0.641667	-0.0119678	0.0279678
0.641833	-0.0113171	0.027967
0.642	-0.0106342	0.0282634
0.642167	-0.00993033	0.0284629
0.642333	-0.00917767	0.0283207
0.6425	-0.00837449	0.0282345
0.642667	-0.00762181	0.0286935
0.642833	-0.00693748	0.029735
0.643	-0.00626613	0.0312871
0.643167	-0.00563254	0.0332993
0.643333	-0.0050618	0.0354388
0.6435	-0.00455882	0.0372123
0.643667	-0.00418261	0.038437
0.643833	-0.0039976	0.0393278
0.644	-0.00397457	0.0399268
0.644167	-0.00396534	0.0401128
0.644333	-0.00383701	0.0402642
0.6445	-0.00364872	0.0407489
0.644667	-0.00342486	0.0412185
0.644833	-0.00293263	0.0412729
0.645	-0.00203203	0.0410382
0.645167	-0.000819322	0.0408271
0.645333	0.000600322	0.0407522
0.6455	0.0020325	0.0406849
0.645667	0.00324123	0.0404992
0.645833	0.00422794	0.0404669
0.646	0.00502977	0.0411117
0.646167	0.00543413	0.0427396
0.646333	0.0051895	0.0454004
0.6465	0.00440736	0.0486998
0.646667	0.00355785	0.0518557
0.646833	0.00300917	0.0545005
0.647	0.00283232	0.0567523
0.647167	0.00295717	0.0586262
0.647333	0.00327773	0.060144
0.6475	0.00362451	0.0614158
0.647667	0.00375798	0.0623417
0.647833	0.00359686	0.0627509
0.648	0.00332104	0.0626794
0.648167	0.00313477	0.0624279
0.648333	0.00310059	0.0623999
0.6485	0.00322183	0.0629158
0.648667	0.00350043	0.0640946
0.648833	0.00393111	0.0656773
0.649	0.00449827	0.0671652
0.649167	0.00515029	0.0682766
0.649333	0.00590242	0.0692105
0.6495	0.0068238	0.0702252
0.649667	0.00783488	0.0711367
0.649833	0.00873032	0.0716636
0.65	0.00951032	0.0717852
0.650167	0.0104172	0.071545
0.650333	0.0113631	0.070988
0.6505	0.0119211	0.070297
0.650667	0.0120507	0.0697105
0.650833	0.0120237	0.0692626
0.651	0.0119967	0.0688905
0.651167	0.0120636	0.0687257
0.651333	0.0120262	0.0688664
0.6515	0.0114957	0.0691978
0.651667	0.0105875	0.0696494
0.651833	0.00963265	0.0702828
0.652	0.00854065	0.0710125
0.652167	0.00727684	0.0715248
0.652333	0.00617598	0.0717155
0.6525	0.00547029	0.0718256
0.652667	0.00520956	0.0719916
0.652833	0.00538996	0.071984
0.653	0.00599199	0.0716573
0.653167	0.00702442	0.071379
0.653333	0.00820705	0.0714851
0.6535	0.00903552	0.0718168
0.653667	0.0092271	0.0721992
0.653833	0.00885389	0.0727121
0.654	0.00836909	0.0733716
0.654167	0.00806618	0.074011
0.654333	0.00776942	0.0744879
0.6545	0.00740851	0.0749205
0.654667	0.00705996	0.0754921
0.654833	0.00674735	0.0762112
0.655	0.00663611	0.0771386
0.655167	0.00677939	0.078309
0.655333	0.00684764	0.0794248
0.6555	0.00653744	0.0801218
0.655667	0.00596044	0.0804084
0.655833	0.00546094	0.0805313
0.656	0.00519835	0.0806742
0.656167	0.00512718	0.0809718
0.656333	0.00504352	0.0813874
0.6565	0.00460923	0.0815819
0.656667	0.00389917	0.0812328
0.656833	0.0034554	0.0803793
0.657	0.00349385	0.0793628
0.657167	0.00377105	0.0783785
0.657333	0.00404426	0.0773838
0.6575	0.00407845	0.0765418
0.657667	0.00374824	0.0759881
0.657833	0.00323537	0.0756085
0.658	0.00261592	0.0754386
0.658167	0.00168982	0.0755147
0.658333	0.000335026	0.0756936
0.6585	-0.00142489	0.0757707
0.658667	-0.00355451	0.0755435
0.658833	-0.00597691	0.0751639
0.659	-0.00844152	0.0749928
0.659167	-0.0105697	0.0750428
0.659333	-0.0121458	0.0752183
0.6595	-0.0131063	0.0756501
0.659667	-0.0133619	0.0764936
0.659833	-0.0131022	0.077662
0.66	-0.0127717	0.0788714
0.660167	-0.0125512	0.079967
0.660333	-0.0123393	0.0810487
0.6605	-0.0120456	0.0823411
0.660667	-0.0117048	0.0838793
0.660833	-0.0113488	0.0854085
0.661	-0.0109689	0.0867235
0.661167	-0.0106408	0.0877709
0.661333	-0.0104888	0.0885257
0.6615	-0.0105967	0.0890201
0.661667	-0.0107953	0.0895222
0.661833	-0.01065	0.0904976
0.662	-0.010069	0.0921089
0.662167	-0.00948201	0.0939862
0.662333	-0.00909159	0.0956504
0.6625	-0.00879117	0.0968972
0.662667	-0.00878098	0.0976842
0.662833	-0.00909869	0.0980334
0.663	-0.00934376	0.0981291
0.663167	-0.00944288	0.0981463
0.663333	-0.00957528	0.098075
0.6635	-0.00974902	0.0978364
0.663667	-0.00981275	0.0975034
0.663833	-0.00954952	0.0971979
0.664	-0.00900583	0.096763
0.664167	-0.00855271	0.0960472
0.664333	-0.00847601	0.0951781
0.6645	-0.00889201	0.0943049
0.664667	-0.0100502	0.0936097
0.664833	-0.0119469	0.0933725
0.665	-0.013987	0.0937483
0.665167	-0.0155997	0.09453
0.665333	-0.0165085	0.0953193
0.6655	-0.0166355	0.0961112
0.665667	-0.0161712	0.0972703
0.665833	-0.0154447	0.0988475
0.666	-0.0146696	0.100437
0.666167	-0.0138767	0.101761
0.666333	-0.0131299	0.103027
0.6665	-0.0125462	0.104499
0.666667	-0.0120159	0.105966
0.666833	-0.0113357	0.106938
0.667	-0.0105404	0.107171
0.667167	-0.00971693	0.106844
0.667333	-0.00886789	0.106233
0.6675	-0.00814424	0.10538
0.667667	-0.00774911	0.104242
0.667833	-0.00765157	0.102904
0.668	-0.00772207	0.101508
0.668167	-0.00802338	0.100365
0.668333	-0.00855882	0.0998059
0.6685	-0.0090972	0.0996304
0.668667	-0.00959423	0.099347
0.668833	-0.0100983	0.0988885
0.669	-0.0104501	0.0984035
0.669167	-0.0105961	0.0978425
0.669333	-0.0106783	0.09729
0.6695	-0.0106821	0.0969161
0.669667	-0.01047	0.0963986
0.669833	-0.0101548	0.0953405
0.67	-0.0100072	0.0939592
0.670167	-0.0101567	0.0925736
0.670333	-0.0106379	0.091076
0.6705	-0.0114342	0.0893754
0.670667	-0.0123869	0.0876753
0.670833	-0.0132102	0.0861059
0.671	-0.0136882	0.0845686
0.671167	-0.0138023	0.0830467
0.671333	-0.0136002	0.0817366
0.6715	-0.0131748	0.0806676
0.671667	-0.0127813	0.0796246
0.671833	-0.0126667	0.0786391
0.672	-0.0128076	0.0778187
0.672167	-0.013052	0.0768514
0.672333	-0.0133614	0.0754631
0.6725	-0.0137184	0.0738673
0.672667	-0.0141692	0.0722421
0.672833	-0.0148706	0.0705018
0.673	-0.0157439	0.0688704
0.673167	-0.0164672	0.0678015
0.673333	-0.0167727	0.0674551
0.6735	-0.0166386	0.0677468
0.673667	-0.0163131	0.0683998
0.673833	-0.0158235	0.0691341
0.674	-0.0150352	0.069984
0.674167	-0.0142227	0.0709195
0.674333	-0.0137114	0.0715651
0.6745	-0.0136058	0.0716848
0.674667	-0.0140448	0.0714638
0.674833	-0.0149754	0.071134
0.675	-0.0159137	0.0707241
0.675167	-0.0163647	0.0703141
0.675333	-0.0162955	0.0700413
0.6755	-0.0160391	0.0696148
0.675667	-0.0160204	0.0684498
0.675833	-0.0165723	0.0664513
0.676	-0.0178075	0.0640604
0.676167	-0.0196023	0.0615792
0.676333	-0.0215627	0.058976
0.6765	-0.0232819	0.0565036
0.676667	-0.0248063	0.0548346
0.676833	-0.0262979	0.0542195
0.677	-0.0275321	0.0542132
0.677167	-0.0283919	0.0543588
0.677333	-0.029114	0.0545411
0.6775	-0.0297021	0.0545852
0.677667	-0.0299303	0.0541632
0.677833	-0.029848	0.0531699
0.678	-0.0296774	0.0516999
0.678167	-0.0294945	0.0498462
0.678333	-0.0293491	0.047736
0.6785	-0.0292823	0.0456185
0.678667	-0.0291364	0.0438503
0.678833	-0.0287984	0.042675
0.679	-0.028401	0.0420907
0.679167	-0.0280526	0.0420305
0.679333	-0.0277147	0.0424153
0.6795	-0.0273308	0.0430915
0.679667	-0.0268994	0.0437776
0.679833	-0.0264292	0.0441391
0.68	-0.0259903	0.0441715
0.680167	-0.0257661	0.0441741
0.680333	-0.0256853	0.0442187
0.6805	-0.0254455	0.0440599
0.680667	-0.0250005	0.0434953
0.680833	-0.02457	0.0425871
0.681	-0.0245204	0.0415683
0.681167	-0.0249948	0.0405176
0.681333	-0.0256815	0.0393162
0.6815	-0.0263939	0.0379309
0.681667	-0.0271636	0.0364592
0.681833	-0.0278531	0.035081
0.682	-0.0284113	0.0339654
0.682167	-0.0290549	0.0330465
0.682333	-0.0299713	0.032107
0.6825	-0.0312586	0.0310765
0.682667	-0.0328337	0.0299785
0.682833	-0.0342951	0.0287415
0.683	-0.0353701	0.0274535
0.683167	-0.0361172	0.0264692
0.683333	-0.0365693	0.0259118
0.6835	-0.0366121	0.0255444
0.683667	-0.0362297	0.0253467
0.683833	-0.0357094	0.0256046
0.684	-0.0352468	0.0262811
0.684167	-0.0347234	0.0269818
0.684333	-0.0341357	0.0275987
0.6845	-0.0336214	0.0283759
0.684667	-0.0332015	0.0293773
0.684833	-0.0327902	0.0304543
0.685	-0.0323316	0.0316527
0.685167	-0.031947	0.0331758
0.685333	-0.0316958	0.0349748
0.6855	-0.0312317	0.0367327
0.685667	-0.0302699	0.0382923
0.685833	-0.0291092	0.0396792
0.686	-0.0282021	0.0407704
0.686167	-0.0277758	0.0415414
0.686333	-0.0279739	0.0423637
0.6865	-0.0287159	0.0437904
0.686667	-0.0296797	0.0464583
0.686833	-0.0308125	0.0512096
0.687	-0.0322998	0.0589499
0.687167	-0.0340236	0.0698057
0.687333	-0.0357361	0.0822163
0.6875	-0.0375306	0.0927823
0.687667	-0.0396074	0.097241
0.687833	-0.0419189	0.0925463
0.688	-0.044079	0.0784239
0.688167	-0.0454964	0.0572081
0.688333	-0.0459743	0.0325102
0.6885	-0.0458114	0.00764889
0.688667	-0.0452567	-0.0152403
0.688833	-0.0445137	-0.0350567
0.689	-0.0439364	-0.0513842
0.689167	-0.0437078	-0.0643955
0.689333	-0.04366	-0.0744862
0.6895	-0.0436339	-0.0819239
0.689667	-0.0436667	-0.0870014
0.689833	-0.043802	-0.0900779
0.69	-0.0439554	-0.0914277
0.690167	-0.0439734	-0.0914699
0.690333	-0.0439642	-0.0907926
0.6905	-0.0442633	-0.089733
0.690667	-0.0448218	-0.0883722
0.690833	-0.0454466	-0.0867866
0.691	-0.0463948	-0.0850005
0.691167	-0.0478602	-0.0830575
0.691333	-0.0495703	-0.0812376
0.6915	-0.0510609	-0.0798816
0.691667	-0.0519907	-0.0789874
0.691833	-0.0524004	-0.0782466
0.692	-0.0524803	-0.0775043
0.692167	-0.0524833	-0.0767595
0.692333	-0.0528903	-0.075895
0.6925	-0.0537995	-0.0748579
0.692667	-0.054878	-0.0736462
0.692833	-0.056101	-0.0721135
0.693	-0.0574533	-0.070351
0.693167	-0.0587003	-0.0688094
0.693333	-0.0598836	-0.0676436
0.6935	-0.061023	-0.0666103
0.693667	-0.0619141	-0.0656897
0.693833	-0.0625559	-0.0650748
0.694	-0.062876	-0.0647176
0.694167	-0.0625779	-0.0644868
0.694333	-0.0617725	-0.0644354
0.6945	-0.0610129	-0.0646932
0.694667	-0.0605275	-0.0653123
0.694833	-0.0601038	-0.0660767
0.695	-0.0597231	-0.0666155
0.695167	-0.0595291	-0.0666721
0.695333	-0.0594277	-0.0661881
0.6955	-0.0593814	-0.0654209
0.695667	-0.0596317	-0.0646317
0.695833	-0.0602298	-0.0637693
0.696	-0.0608496	-0.0628495
0.696167	-0.061213	-0.0621445
0.696333	-0.0614256	-0.0618607
0.6965	-0.0616716	-0.0620169
0.696667	-0.0617598	-0.0625346
0.696833	-0.0615988	-0.0632242
0.697	-0.0616832	-0.0640054
0.697167	-0.0625249	-0.0650033
0.697333	-0.0641033	-0.0661151
0.6975	-0.0659723	-0.0669777
0.697667	-0.0675772	-0.0673967
0.697833	-0.0686202	-0.0674364
0.698	-0.0691946	-0.0672847
0.698167	-0.0693978	-0.0670592
0.698333	-0.0691812	-0.0666391
0.6985	-0.0687127	-0.0660053
0.698667	-0.0682184	-0.0654508
0.698833	-0.0676308	-0.065096
0.699	-0.0668589	-0.064769
0.699167	-0.0659881	-0.0643942
0.699333	-0.0651297	-0.0639943
0.6995	-0.0642504	-0.0634389
0.699667	-0.0632136	-0.0626199
0.699833	-0.0620551	-0.0617958
0.7	-0.0610831	-0.0613349
0.700167	-0.0607071	-0.0613032
0.700333	-0.061185	-0.0616108
0.7005	-0.0623987	-0.0621663
0.700667	-0.0638091	-0.0626829
0.700833	-0.0649688	-0.0628941
0.701	-0.0660278	-0.0629109
0.701167	-0.0671271	-0.0629303
0.701333	-0.0680537	-0.0629928
0.7015	-0.0689544	-0.0629614
0.701667	-0.070042	-0.062621
0.701833	-0.07088	-0.0619751
0.702	-0.0710557	-0.0611053
0.702167	-0.0707556	-0.0600516
0.702333	-0.0704687	-0.0589829
0.7025	-0.0707282	-0.0581008
0.702667	-0.0716358	-0.0574828
0.702833	-0.0726718	-0.0570777
0.703	-0.0733391	-0.056768
0.703167	-0.0734651	-0.0565016
0.703333	-0.0730438	-0.0563885
0.7035	-0.0722379	-0.0564563
0.703667	-0.0713667	-0.0563773
0.703833	-0.0707809	-0.0557509
0.704	-0.07056	-0.0546276
0.704167	-0.0703458	-0.0535026
0.704333	-0.0698895	-0.0527243
0.7045	-0.0694371	-0.0522799
0.704667	-0.0691831	-0.0521651
0.704833	-0.0690643	-0.052424
0.705	-0.0690847	-0.0530979
0.705167	-0.0691805	-0.0544067
0.705333	-0.0691637	-0.0564282
0.7055	-0.0691006	-0.0587627
0.705667	-0.0692151	-0.0609082
